[Header]
Application Name	LabSolutions
Version	5.71
Data File Name	C:\LabSolutions\Data\Project1\Analyst1\Compound1_Blank__02.lcd
Output Date	04/01/2013
Output Time	01:38:15

[File Information]
Type	Data File
Generated	03/01/2013 07:22:26
Generated by	System Administrator
Modified	03/01/2013 07:34:54
Modified by	System Administrator

[Sample Information]
Operator Name	System Administrator
Acquired	03/01/2013 07:22:52
Sample Type	2:Control
Level	0
Sample Name	Blank_
Sample ID	Blank_
ISTD Amount1	1
ISTD Amount2	1
ISTD Amount3	1
ISTD Amount4	1
ISTD Amount5	1
ISTD Amount6	1
ISTD Amount7	1
ISTD Amount8	1
ISTD Amount9	1
ISTD Amount10	1
ISTD Amount11	1
ISTD Amount12	1
ISTD Amount13	1
ISTD Amount14	1
ISTD Amount15	1
ISTD Amount16	1
ISTD Amount17	1
ISTD Amount18	1
ISTD Amount19	1
ISTD Amount20	1
ISTD Amount21	1
ISTD Amount22	1
ISTD Amount23	1
ISTD Amount24	1
ISTD Amount25	1
ISTD Amount26	1
ISTD Amount27	1
ISTD Amount28	1
ISTD Amount29	1
ISTD Amount30	1
ISTD Amount31	1
ISTD Amount32	1
Sample Amount	1
Dilution Factor	1
Vial#	48
Injection Volume	50

[Original Files]
Data File	C:\LabSolutions\Data\Project1\Analyst1\Compound1_Blank__02.lcd
Method File	C:\LabSolutions\Data\Project1\Analyst1\Compound1.lcm
Batch File	C:\LabSolutions\Data\Project1\Analyst1\2026.01.14_Compound1_std_curve.lcb
Report Format File	C:\LabSolutions\System\DEFAULT.lsr

[File Description]


[Configuration]
Instrument Name	HPLC-PC-Instrument
Instrument #	2
Line #	1
# of Detectors	1
Detector ID	PDA
Detector Name	PDA
# of Channels	1

[Peak Table(PDA-Ch1)]
# of Peaks	0

[Compound Results(PDA)]
# of IDs	0

[PDA Multi Chromatogram(Ch1)]
# of Points	      1128
Interval(msec)	640
Start Time(min)	0
End Time(min)	12,0213
Intensity Units	mAU
Intensity Multiplier	1
Type	MultiChrom
Wavelength(nm)	315
Bandwidth(nm)	4
R.Time (min)	Intensity
0,00000	0
0,01067	0
0,02133	0
0,03200	0
0,04267	0
0,05333	0
0,06400	0
0,07467	0
0,08533	0
0,09600	0
0,10667	8
0,11733	15
0,12800	17
0,13867	20
0,14933	17
0,16000	17
0,17067	14
0,18133	14
0,19200	15
0,20267	13
0,21333	16
0,22400	13
0,23467	7
0,24533	11
0,25600	13
0,26667	16
0,27733	15
0,28800	22
0,29867	11
0,30933	11
0,32000	9
0,33067	6
0,34133	5
0,35200	5
0,36267	4
0,37333	7
0,38400	7
0,39467	12
0,40533	13
0,41600	9
0,42667	5
0,43733	11
0,44800	19
0,45867	18
0,46933	16
0,48000	10
0,49067	10
0,50133	5
0,51200	3
0,52267	8
0,53333	7
0,54400	7
0,55467	9
0,56533	3
0,57600	9
0,58667	9
0,59733	0
0,60800	8
0,61867	3
0,62933	7
0,64000	8
0,65067	10
0,66133	9
0,67200	12
0,68267	8
0,69333	8
0,70400	7
0,71467	3
0,72533	7
0,73600	16
0,74667	13
0,75733	13
0,76800	13
0,77867	13
0,78933	9
0,80000	9
0,81067	15
0,82133	8
0,83200	14
0,84267	19
0,85333	10
0,86400	10
0,87467	4
0,88533	5
0,89600	4
0,90667	7
0,91733	13
0,92800	10
0,93867	9
0,94933	10
0,96000	12
0,97067	17
0,98133	12
0,99200	6
1,00267	6
1,01333	3
1,02400	8
1,03467	5
1,04533	9
1,05600	7
1,06667	5
1,07733	8
1,08800	13
1,09867	14
1,10933	16
1,12000	15
1,13067	14
1,14133	11
1,15200	8
1,16267	4
1,17333	11
1,18400	9
1,19467	9
1,20533	3
1,21600	7
1,22667	14
1,23733	18
1,24800	9
1,25867	9
1,26933	7
1,28000	12
1,29067	15
1,30133	13
1,31200	5
1,32267	11
1,33333	16
1,34400	14
1,35467	15
1,36533	10
1,37600	16
1,38667	18
1,39733	15
1,40800	19
1,41867	16
1,42933	15
1,44000	14
1,45067	14
1,46133	10
1,47200	12
1,48267	14
1,49333	9
1,50400	4
1,51467	10
1,52533	10
1,53600	8
1,54667	11
1,55733	8
1,56800	5
1,57867	5
1,58933	6
1,60000	11
1,61067	15
1,62133	19
1,63200	17
1,64267	11
1,65333	9
1,66400	3
1,67467	4
1,68533	5
1,69600	10
1,70667	7
1,71733	10
1,72800	6
1,73867	5
1,74933	9
1,76000	5
1,77067	5
1,78133	5
1,79200	5
1,80267	7
1,81333	8
1,82400	9
1,83467	5
1,84533	6
1,85600	5
1,86667	8
1,87733	12
1,88800	6
1,89867	9
1,90933	6
1,92000	14
1,93067	6
1,94133	7
1,95200	2
1,96267	5
1,97333	6
1,98400	12
1,99467	6
2,00533	5
2,01600	4
2,02667	14
2,03733	11
2,04800	4
2,05867	2
2,06933	4
2,08000	10
2,09067	9
2,10133	15
2,11200	14
2,12267	9
2,13333	3
2,14400	9
2,15467	10
2,16533	9
2,17600	11
2,18667	7
2,19733	6
2,20800	7
2,21867	6
2,22933	12
2,24000	9
2,25067	10
2,26133	7
2,27200	10
2,28267	11
2,29333	6
2,30400	-11
2,31467	-0
2,32533	3
2,33600	8
2,34667	4
2,35733	8
2,36800	10
2,37867	17
2,38933	11
2,40000	10
2,41067	10
2,42133	10
2,43200	12
2,44267	10
2,45333	11
2,46400	15
2,47467	16
2,48533	13
2,49600	13
2,50667	8
2,51733	7
2,52800	6
2,53867	2
2,54933	3
2,56000	3
2,57067	6
2,58133	4
2,59200	11
2,60267	6
2,61333	4
2,62400	8
2,63467	9
2,64533	9
2,65600	1
2,66667	-1
2,67733	2
2,68800	4
2,69867	5
2,70933	3
2,72000	10
2,73067	6
2,74133	9
2,75200	6
2,76267	13
2,77333	12
2,78400	13
2,79467	15
2,80533	15
2,81600	14
2,82667	9
2,83733	7
2,84800	15
2,85867	15
2,86933	16
2,88000	18
2,89067	18
2,90133	17
2,91200	21
2,92267	21
2,93333	22
2,94400	22
2,95467	20
2,96533	20
2,97600	19
2,98667	17
2,99733	24
3,00800	28
3,01867	29
3,02933	20
3,04000	16
3,05067	14
3,06133	6
3,07200	19
3,08267	23
3,09333	19
3,10400	16
3,11467	14
3,12533	12
3,13600	18
3,14667	19
3,15733	17
3,16800	18
3,17867	16
3,18933	16
3,20000	20
3,21067	24
3,22133	19
3,23200	19
3,24267	21
3,25333	15
3,26400	20
3,27467	18
3,28533	21
3,29600	18
3,30667	18
3,31733	17
3,32800	13
3,33867	16
3,34933	16
3,36000	19
3,37067	18
3,38133	14
3,39200	11
3,40267	10
3,41333	5
3,42400	9
3,43467	6
3,44533	18
3,45600	18
3,46667	11
3,47733	11
3,48800	9
3,49867	10
3,50933	10
3,52000	11
3,53067	13
3,54133	12
3,55200	13
3,56267	11
3,57333	9
3,58400	12
3,59467	9
3,60533	9
3,61600	7
3,62667	11
3,63733	19
3,64800	23
3,65867	23
3,66933	21
3,68000	21
3,69067	21
3,70133	20
3,71200	25
3,72267	28
3,73333	25
3,74400	22
3,75467	22
3,76533	20
3,77600	19
3,78667	18
3,79733	13
3,80800	15
3,81867	18
3,82933	24
3,84000	29
3,85067	17
3,86133	15
3,87200	16
3,88267	13
3,89333	13
3,90400	11
3,91467	11
3,92533	14
3,93600	15
3,94667	16
3,95733	17
3,96800	20
3,97867	17
3,98933	14
4,00000	6
4,01067	8
4,02133	10
4,03200	8
4,04267	8
4,05333	8
4,06400	10
4,07467	12
4,08533	12
4,09600	15
4,10667	14
4,11733	7
4,12800	2
4,13867	4
4,14933	1
4,16000	4
4,17067	10
4,18133	8
4,19200	15
4,20267	15
4,21333	11
4,22400	10
4,23467	10
4,24533	8
4,25600	9
4,26667	5
4,27733	10
4,28800	10
4,29867	12
4,30933	9
4,32000	11
4,33067	12
4,34133	12
4,35200	12
4,36267	5
4,37333	9
4,38400	5
4,39467	5
4,40533	4
4,41600	1
4,42667	7
4,43733	8
4,44800	9
4,45867	14
4,46933	11
4,48000	14
4,49067	13
4,50133	12
4,51200	11
4,52267	4
4,53333	12
4,54400	12
4,55467	10
4,56533	10
4,57600	15
4,58667	12
4,59733	14
4,60800	13
4,61867	11
4,62933	5
4,64000	8
4,65067	9
4,66133	9
4,67200	17
4,68267	24
4,69333	18
4,70400	12
4,71467	20
4,72533	18
4,73600	15
4,74667	12
4,75733	14
4,76800	7
4,77867	11
4,78933	6
4,80000	7
4,81067	14
4,82133	9
4,83200	12
4,84267	9
4,85333	11
4,86400	9
4,87467	7
4,88533	7
4,89600	13
4,90667	12
4,91733	20
4,92800	11
4,93867	8
4,94933	5
4,96000	9
4,97067	11
4,98133	10
4,99200	8
5,00267	9
5,01333	5
5,02400	6
5,03467	8
5,04533	3
5,05600	6
5,06667	-1
5,07733	2
5,08800	4
5,09867	4
5,10933	3
5,12000	6
5,13067	9
5,14133	11
5,15200	7
5,16267	9
5,17333	10
5,18400	11
5,19467	4
5,20533	3
5,21600	6
5,22667	2
5,23733	3
5,24800	-0
5,25867	-12
5,26933	-3
5,28000	-1
5,29067	-4
5,30133	-4
5,31200	-5
5,32267	2
5,33333	8
5,34400	1
5,35467	6
5,36533	3
5,37600	-2
5,38667	1
5,39733	5
5,40800	2
5,41867	-0
5,42933	1
5,44000	3
5,45067	3
5,46133	-4
5,47200	1
5,48267	-5
5,49333	-8
5,50400	-6
5,51467	2
5,52533	-4
5,53600	-4
5,54667	-5
5,55733	-5
5,56800	1
5,57867	3
5,58933	-3
5,60000	-2
5,61067	-0
5,62133	-1
5,63200	2
5,64267	3
5,65333	6
5,66400	2
5,67467	-1
5,68533	-4
5,69600	-0
5,70667	1
5,71733	1
5,72800	5
5,73867	-0
5,74933	3
5,76000	3
5,77067	1
5,78133	7
5,79200	12
5,80267	6
5,81333	11
5,82400	-0
5,83467	1
5,84533	1
5,85600	-3
5,86667	1
5,87733	-3
5,88800	2
5,89867	3
5,90933	-3
5,92000	2
5,93067	-1
5,94133	0
5,95200	-5
5,96267	-6
5,97333	-3
5,98400	1
5,99467	5
6,00533	2
6,01600	3
6,02667	5
6,03733	0
6,04800	-4
6,05867	-5
6,06933	-5
6,08000	-5
6,09067	-8
6,10133	-4
6,11200	-5
6,12267	3
6,13333	3
6,14400	6
6,15467	-2
6,16533	1
6,17600	2
6,18667	-1
6,19733	-0
6,20800	2
6,21867	1
6,22933	0
6,24000	-1
6,25067	-3
6,26133	-0
6,27200	-5
6,28267	-3
6,29333	-0
6,30400	-1
6,31467	-6
6,32533	-8
6,33600	-7
6,34667	-6
6,35733	-7
6,36800	-3
6,37867	-3
6,38933	4
6,40000	3
6,41067	4
6,42133	1
6,43200	2
6,44267	4
6,45333	2
6,46400	4
6,47467	1
6,48533	3
6,49600	-2
6,50667	-0
6,51733	-2
6,52800	-2
6,53867	0
6,54933	-3
6,56000	-3
6,57067	1
6,58133	3
6,59200	0
6,60267	-0
6,61333	9
6,62400	6
6,63467	-0
6,64533	0
6,65600	4
6,66667	1
6,67733	-1
6,68800	-1
6,69867	1
6,70933	2
6,72000	4
6,73067	2
6,74133	0
6,75200	-2
6,76267	-2
6,77333	-4
6,78400	1
6,79467	8
6,80533	4
6,81600	2
6,82667	3
6,83733	-2
6,84800	-3
6,85867	-1
6,86933	4
6,88000	6
6,89067	-3
6,90133	-6
6,91200	1
6,92267	3
6,93333	-2
6,94400	-5
6,95467	-5
6,96533	-4
6,97600	-2
6,98667	-4
6,99733	-1
7,00800	-0
7,01867	-5
7,02933	-2
7,04000	4
7,05067	4
7,06133	1
7,07200	-4
7,08267	-6
7,09333	-5
7,10400	-4
7,11467	-4
7,12533	-0
7,13600	-7
7,14667	-6
7,15733	-5
7,16800	-8
7,17867	-7
7,18933	-0
7,20000	-4
7,21067	-6
7,22133	-3
7,23200	-5
7,24267	-6
7,25333	-5
7,26400	-3
7,27467	-1
7,28533	3
7,29600	-1
7,30667	-4
7,31733	-6
7,32800	2
7,33867	-3
7,34933	-7
7,36000	1
7,37067	-1
7,38133	-7
7,39200	-8
7,40267	-5
7,41333	-9
7,42400	-9
7,43467	-10
7,44533	-14
7,45600	-6
7,46667	-2
7,47733	-4
7,48800	-13
7,49867	-11
7,50933	-6
7,52000	-6
7,53067	-9
7,54133	-8
7,55200	-14
7,56267	-10
7,57333	-12
7,58400	-11
7,59467	-10
7,60533	-9
7,61600	-17
7,62667	-8
7,63733	-10
7,64800	-11
7,65867	-12
7,66933	-16
7,68000	-11
7,69067	-11
7,70133	-8
7,71200	-12
7,72267	-14
7,73333	-15
7,74400	-14
7,75467	-17
7,76533	-18
7,77600	-14
7,78667	-13
7,79733	-15
7,80800	-14
7,81867	-17
7,82933	-15
7,84000	-16
7,85067	-16
7,86133	-16
7,87200	-12
7,88267	-18
7,89333	-16
7,90400	-13
7,91467	-15
7,92533	-16
7,93600	-15
7,94667	-19
7,95733	-20
7,96800	-22
7,97867	-14
7,98933	-9
8,00000	-11
8,01067	-14
8,02133	-17
8,03200	-11
8,04267	-14
8,05333	-12
8,06400	-9
8,07467	-9
8,08533	-11
8,09600	-11
8,10667	-15
8,11733	-20
8,12800	-16
8,13867	-14
8,14933	-11
8,16000	-10
8,17067	-19
8,18133	-17
8,19200	-13
8,20267	-19
8,21333	-20
8,22400	-19
8,23467	-16
8,24533	-23
8,25600	-27
8,26667	-22
8,27733	-21
8,28800	-20
8,29867	-25
8,30933	-25
8,32000	-21
8,33067	-15
8,34133	-12
8,35200	-3
8,36267	-18
8,37333	-21
8,38400	-25
8,39467	-18
8,40533	-15
8,41600	-15
8,42667	-26
8,43733	-31
8,44800	-24
8,45867	-22
8,46933	-24
8,48000	-22
8,49067	-20
8,50133	-23
8,51200	-20
8,52267	-19
8,53333	-16
8,54400	-17
8,55467	-21
8,56533	-19
8,57600	-23
8,58667	-24
8,59733	-19
8,60800	-21
8,61867	-22
8,62933	-17
8,64000	-20
8,65067	-21
8,66133	-21
8,67200	-22
8,68267	-16
8,69333	-17
8,70400	-22
8,71467	-23
8,72533	-27
8,73600	-23
8,74667	-19
8,75733	-19
8,76800	-20
8,77867	-19
8,78933	-19
8,80000	-22
8,81067	-21
8,82133	-22
8,83200	-21
8,84267	-21
8,85333	-17
8,86400	-20
8,87467	-19
8,88533	-18
8,89600	-18
8,90667	-20
8,91733	-23
8,92800	-22
8,93867	-20
8,94933	-19
8,96000	-23
8,97067	-20
8,98133	-18
8,99200	-12
9,00267	-14
9,01333	-13
9,02400	-13
9,03467	-14
9,04533	-20
9,05600	-22
9,06667	-20
9,07733	-24
9,08800	-18
9,09867	-19
9,10933	-18
9,12000	-18
9,13067	-19
9,14133	-21
9,15200	-19
9,16267	-19
9,17333	-19
9,18400	-19
9,19467	-23
9,20533	-24
9,21600	-18
9,22667	-23
9,23733	-27
9,24800	-32
9,25867	-27
9,26933	-26
9,28000	-20
9,29067	-28
9,30133	-28
9,31200	-23
9,32267	-27
9,33333	-26
9,34400	-26
9,35467	-30
9,36533	-20
9,37600	-20
9,38667	-26
9,39733	-28
9,40800	-27
9,41867	-28
9,42933	-28
9,44000	-30
9,45067	-24
9,46133	-32
9,47200	-27
9,48267	-20
9,49333	-25
9,50400	-20
9,51467	-25
9,52533	-22
9,53600	-28
9,54667	-23
9,55733	-21
9,56800	-20
9,57867	-26
9,58933	-24
9,60000	-26
9,61067	-21
9,62133	-20
9,63200	-18
9,64267	-14
9,65333	-11
9,66400	-14
9,67467	-16
9,68533	-20
9,69600	-17
9,70667	-16
9,71733	-14
9,72800	-15
9,73867	-16
9,74933	-19
9,76000	-15
9,77067	-16
9,78133	-14
9,79200	-15
9,80267	-16
9,81333	-18
9,82400	-18
9,83467	-22
9,84533	-16
9,85600	-23
9,86667	-20
9,87733	-19
9,88800	-23
9,89867	-17
9,90933	-18
9,92000	-17
9,93067	-14
9,94133	-16
9,95200	-23
9,96267	-21
9,97333	-27
9,98400	-24
9,99467	-24
10,00533	-21
10,01600	-25
10,02667	-29
10,03733	-21
10,04800	-21
10,05867	-17
10,06933	-13
10,08000	-18
10,09067	-17
10,10133	-18
10,11200	-18
10,12267	-20
10,13333	-21
10,14400	-23
10,15467	-16
10,16533	-16
10,17600	-21
10,18667	-19
10,19733	-23
10,20800	-21
10,21867	-16
10,22933	-16
10,24000	-22
10,25067	-16
10,26133	-25
10,27200	-19
10,28267	-20
10,29333	-20
10,30400	-20
10,31467	-15
10,32533	-15
10,33600	-18
10,34667	-17
10,35733	-23
10,36800	-21
10,37867	-23
10,38933	-24
10,40000	-17
10,41067	-13
10,42133	-17
10,43200	-16
10,44267	-16
10,45333	-13
10,46400	-14
10,47467	-15
10,48533	-17
10,49600	-21
10,50667	-18
10,51733	-18
10,52800	-18
10,53867	-22
10,54933	-25
10,56000	-18
10,57067	-13
10,58133	-10
10,59200	-16
10,60267	-12
10,61333	-15
10,62400	-15
10,63467	-13
10,64533	-18
10,65600	-15
10,66667	-11
10,67733	-5
10,68800	13
10,69867	-5
10,70933	-13
10,72000	53
10,73067	50
10,74133	-0
10,75200	-16
10,76267	-18
10,77333	-13
10,78400	-20
10,79467	-19
10,80533	-16
10,81600	-20
10,82667	-27
10,83733	-24
10,84800	-19
10,85867	-21
10,86933	-17
10,88000	-13
10,89067	-18
10,90133	-13
10,91200	-13
10,92267	-6
10,93333	-14
10,94400	-12
10,95467	-8
10,96533	-7
10,97600	-11
10,98667	-11
10,99733	-14
11,00800	-14
11,01867	-12
11,02933	-11
11,04000	-11
11,05067	-10
11,06133	-11
11,07200	-5
11,08267	-14
11,09333	-16
11,10400	-20
11,11467	-18
11,12533	-13
11,13600	-13
11,14667	-8
11,15733	-7
11,16800	-9
11,17867	-13
11,18933	-12
11,20000	-7
11,21067	-9
11,22133	-8
11,23200	-7
11,24267	-11
11,25333	-5
11,26400	-10
11,27467	-9
11,28533	-9
11,29600	-2
11,30667	-4
11,31733	-3
11,32800	-5
11,33867	-2
11,34933	-7
11,36000	64
11,37067	145
11,38133	51
11,39200	15
11,40267	-1
11,41333	-5
11,42400	-3
11,43467	-7
11,44533	-8
11,45600	-3
11,46667	-0
11,47733	-1
11,48800	-4
11,49867	-0
11,50933	-6
11,52000	-3
11,53067	-5
11,54133	-2
11,55200	-4
11,56267	-5
11,57333	-6
11,58400	-6
11,59467	-4
11,60533	-6
11,61600	-7
11,62667	-12
11,63733	-10
11,64800	-15
11,65867	-8
11,66933	-9
11,68000	-13
11,69067	-10
11,70133	-10
11,71200	-18
11,72267	-11
11,73333	-10
11,74400	-13
11,75467	-9
11,76533	-13
11,77600	-12
11,78667	-5
11,79733	-6
11,80800	-9
11,81867	-9
11,82933	-9
11,84000	-5
11,85067	-4
11,86133	-9
11,87200	-9
11,88267	-12
11,89333	-8
11,90400	-9
11,91467	-12
11,92533	-11
11,93600	-10
11,94667	-10
11,95733	-8
11,96800	-14
11,97867	-11
11,98933	-13
12,00000	-15
12,01067	-14
12,02133	-7


