[Header]
Application Name	LabSolutions
Version	5.71
Data File Name	C:\LabSolutions\Data\Project1\Analyst1\2026.01.19_SMP_2.lcd
Output Date	01/01/2013
Output Time	02:19:51

[File Information]
Type	Data File
Generated	01/01/2013 01:25:24
Generated by	System Administrator
Modified	01/01/2013 01:37:52
Modified by	System Administrator

[Sample Information]
Operator Name	System Administrator
Acquired	01/01/2013 01:25:48
Sample Type	0:Unknown
Level	0
Sample Name	2026.01.19_SMP_
Sample ID	2026.01.19_SMP_
ISTD Amount1	1
ISTD Amount2	1
ISTD Amount3	1
ISTD Amount4	1
ISTD Amount5	1
ISTD Amount6	1
ISTD Amount7	1
ISTD Amount8	1
ISTD Amount9	1
ISTD Amount10	1
ISTD Amount11	1
ISTD Amount12	1
ISTD Amount13	1
ISTD Amount14	1
ISTD Amount15	1
ISTD Amount16	1
ISTD Amount17	1
ISTD Amount18	1
ISTD Amount19	1
ISTD Amount20	1
ISTD Amount21	1
ISTD Amount22	1
ISTD Amount23	1
ISTD Amount24	1
ISTD Amount25	1
ISTD Amount26	1
ISTD Amount27	1
ISTD Amount28	1
ISTD Amount29	1
ISTD Amount30	1
ISTD Amount31	1
ISTD Amount32	1
Sample Amount	1
Dilution Factor	1
Vial#	57
Injection Volume	10

[Original Files]
Data File	C:\LabSolutions\Data\Project1\Analyst1\2026.01.19_SMP_2.lcd
Method File	C:\LabSolutions\Data\Project1\Analyst1\Compound1.lcm
Batch File	
Report Format File	C:\LabSolutions\System\DEFAULT.lsr

[File Description]


[Configuration]
Instrument Name	HPLC-PC-Instrument
Instrument #	2
Line #	1
# of Detectors	1
Detector ID	PDA
Detector Name	PDA
# of Channels	1

[Peak Table(PDA-Ch1)]
# of Peaks	1
Peak#	R.Time	I.Time	F.Time	Area	Height	A/H	Conc.	Mark	ID#	Name	k'	Plate #	Plate Ht.	Tailing	Resolution	Sep.Factor	Area Ratio	Height Ratio	Conc. %	Norm Conc.
1	2,902	2,485	4,107	9345363	1202375	7,772	0,000	   			0,000	3064	48,963	1,585	0,000	0,000	0	0	0,000	0,000

[Compound Results(PDA)]
# of IDs	0

[PDA Multi Chromatogram(Ch1)]
# of Points	      1128
Interval(msec)	640
Start Time(min)	0
End Time(min)	12,0213
Intensity Units	mAU
Intensity Multiplier	1
Type	MultiChrom
Wavelength(nm)	315
Bandwidth(nm)	4
R.Time (min)	Intensity
0,00000	0
0,01067	0
0,02133	0
0,03200	0
0,04267	0
0,05333	0
0,06400	0
0,07467	0
0,08533	0
0,09600	0
0,10667	-2
0,11733	-1
0,12800	1
0,13867	4
0,14933	11
0,16000	12
0,17067	12
0,18133	11
0,19200	10
0,20267	3
0,21333	6
0,22400	7
0,23467	10
0,24533	6
0,25600	7
0,26667	10
0,27733	14
0,28800	20
0,29867	13
0,30933	12
0,32000	11
0,33067	14
0,34133	10
0,35200	10
0,36267	10
0,37333	11
0,38400	11
0,39467	11
0,40533	6
0,41600	8
0,42667	8
0,43733	5
0,44800	11
0,45867	9
0,46933	6
0,48000	8
0,49067	13
0,50133	7
0,51200	6
0,52267	4
0,53333	8
0,54400	4
0,55467	7
0,56533	4
0,57600	10
0,58667	9
0,59733	11
0,60800	8
0,61867	12
0,62933	20
0,64000	16
0,65067	12
0,66133	13
0,67200	9
0,68267	11
0,69333	23
0,70400	12
0,71467	16
0,72533	10
0,73600	14
0,74667	11
0,75733	18
0,76800	19
0,77867	19
0,78933	19
0,80000	10
0,81067	15
0,82133	12
0,83200	12
0,84267	14
0,85333	9
0,86400	13
0,87467	8
0,88533	4
0,89600	10
0,90667	8
0,91733	17
0,92800	18
0,93867	16
0,94933	11
0,96000	14
0,97067	19
0,98133	8
0,99200	12
1,00267	5
1,01333	11
1,02400	8
1,03467	3
1,04533	5
1,05600	12
1,06667	7
1,07733	6
1,08800	7
1,09867	5
1,10933	6
1,12000	7
1,13067	7
1,14133	8
1,15200	10
1,16267	10
1,17333	3
1,18400	5
1,19467	4
1,20533	9
1,21600	12
1,22667	13
1,23733	8
1,24800	6
1,25867	7
1,26933	16
1,28000	13
1,29067	17
1,30133	16
1,31200	16
1,32267	10
1,33333	7
1,34400	6
1,35467	3
1,36533	6
1,37600	15
1,38667	17
1,39733	10
1,40800	14
1,41867	21
1,42933	19
1,44000	18
1,45067	17
1,46133	16
1,47200	14
1,48267	13
1,49333	14
1,50400	16
1,51467	13
1,52533	15
1,53600	8
1,54667	12
1,55733	16
1,56800	11
1,57867	16
1,58933	17
1,60000	11
1,61067	14
1,62133	15
1,63200	15
1,64267	11
1,65333	17
1,66400	16
1,67467	15
1,68533	10
1,69600	8
1,70667	19
1,71733	14
1,72800	15
1,73867	16
1,74933	9
1,76000	9
1,77067	9
1,78133	8
1,79200	15
1,80267	11
1,81333	14
1,82400	17
1,83467	11
1,84533	11
1,85600	15
1,86667	10
1,87733	16
1,88800	17
1,89867	16
1,90933	11
1,92000	11
1,93067	15
1,94133	16
1,95200	19
1,96267	14
1,97333	15
1,98400	10
1,99467	12
2,00533	12
2,01600	13
2,02667	7
2,03733	11
2,04800	20
2,05867	21
2,06933	21
2,08000	24
2,09067	25
2,10133	17
2,11200	13
2,12267	9
2,13333	14
2,14400	20
2,15467	21
2,16533	19
2,17600	10
2,18667	15
2,19733	18
2,20800	24
2,21867	15
2,22933	21
2,24000	21
2,25067	18
2,26133	17
2,27200	11
2,28267	10
2,29333	12
2,30400	17
2,31467	17
2,32533	24
2,33600	19
2,34667	16
2,35733	12
2,36800	14
2,37867	16
2,38933	16
2,40000	9
2,41067	17
2,42133	13
2,43200	10
2,44267	14
2,45333	9
2,46400	7
2,47467	11
2,48533	10
2,49600	18
2,50667	22
2,51733	21
2,52800	34
2,53867	50
2,54933	67
2,56000	95
2,57067	136
2,58133	190
2,59200	267
2,60267	366
2,61333	489
2,62400	635
2,63467	800
2,64533	984
2,65600	1166
2,66667	1366
2,67733	1590
2,68800	1855
2,69867	2165
2,70933	2538
2,72000	2962
2,73067	3410
2,74133	3850
2,75200	4288
2,76267	4740
2,77333	5295
2,78400	6288
2,79467	9247
2,80533	20035
2,81600	55366
2,82667	145425
2,83733	309432
2,84800	527465
2,85867	754328
2,86933	947835
2,88000	1086269
2,89067	1169846
2,90133	1202433
2,91200	1180599
2,92267	1102432
2,93333	979327
2,94400	837165
2,95467	703426
2,96533	590273
2,97600	496914
2,98667	418677
2,99733	352030
3,00800	293813
3,01867	242211
3,02933	197262
3,04000	159312
3,05067	128050
3,06133	102768
3,07200	82787
3,08267	67129
3,09333	54802
3,10400	45115
3,11467	37492
3,12533	31414
3,13600	26524
3,14667	22573
3,15733	19368
3,16800	16713
3,17867	14496
3,18933	12653
3,20000	11099
3,21067	9771
3,22133	8628
3,23200	7661
3,24267	6817
3,25333	6095
3,26400	5456
3,27467	4909
3,28533	4427
3,29600	4003
3,30667	3628
3,31733	3302
3,32800	3015
3,33867	2759
3,34933	2530
3,36000	2324
3,37067	2144
3,38133	1980
3,39200	1835
3,40267	1709
3,41333	1596
3,42400	1487
3,43467	1394
3,44533	1303
3,45600	1221
3,46667	1156
3,47733	1098
3,48800	1036
3,49867	983
3,50933	936
3,52000	892
3,53067	850
3,54133	812
3,55200	781
3,56267	752
3,57333	716
3,58400	685
3,59467	663
3,60533	638
3,61600	610
3,62667	588
3,63733	571
3,64800	548
3,65867	527
3,66933	510
3,68000	495
3,69067	473
3,70133	458
3,71200	444
3,72267	433
3,73333	423
3,74400	414
3,75467	406
3,76533	390
3,77600	384
3,78667	373
3,79733	360
3,80800	350
3,81867	343
3,82933	327
3,84000	322
3,85067	318
3,86133	308
3,87200	300
3,88267	291
3,89333	289
3,90400	279
3,91467	271
3,92533	274
3,93600	271
3,94667	265
3,95733	260
3,96800	253
3,97867	252
3,98933	249
4,00000	240
4,01067	236
4,02133	230
4,03200	231
4,04267	218
4,05333	218
4,06400	214
4,07467	205
4,08533	206
4,09600	201
4,10667	197
4,11733	203
4,12800	192
4,13867	184
4,14933	182
4,16000	181
4,17067	179
4,18133	178
4,19200	178
4,20267	173
4,21333	175
4,22400	175
4,23467	164
4,24533	160
4,25600	162
4,26667	163
4,27733	162
4,28800	156
4,29867	156
4,30933	149
4,32000	147
4,33067	146
4,34133	146
4,35200	148
4,36267	143
4,37333	141
4,38400	138
4,39467	145
4,40533	145
4,41600	144
4,42667	138
4,43733	134
4,44800	132
4,45867	132
4,46933	133
4,48000	134
4,49067	133
4,50133	125
4,51200	129
4,52267	131
4,53333	133
4,54400	134
4,55467	132
4,56533	132
4,57600	138
4,58667	135
4,59733	136
4,60800	130
4,61867	124
4,62933	124
4,64000	125
4,65067	121
4,66133	117
4,67200	118
4,68267	120
4,69333	119
4,70400	116
4,71467	115
4,72533	116
4,73600	114
4,74667	115
4,75733	115
4,76800	118
4,77867	121
4,78933	126
4,80000	118
4,81067	118
4,82133	117
4,83200	113
4,84267	111
4,85333	117
4,86400	115
4,87467	110
4,88533	110
4,89600	108
4,90667	107
4,91733	109
4,92800	111
4,93867	111
4,94933	106
4,96000	111
4,97067	104
4,98133	107
4,99200	110
5,00267	109
5,01333	109
5,02400	115
5,03467	119
5,04533	111
5,05600	103
5,06667	107
5,07733	104
5,08800	110
5,09867	104
5,10933	107
5,12000	108
5,13067	113
5,14133	110
5,15200	108
5,16267	107
5,17333	104
5,18400	106
5,19467	107
5,20533	106
5,21600	101
5,22667	105
5,23733	104
5,24800	96
5,25867	99
5,26933	99
5,28000	105
5,29067	95
5,30133	99
5,31200	99
5,32267	97
5,33333	106
5,34400	107
5,35467	99
5,36533	99
5,37600	98
5,38667	99
5,39733	105
5,40800	107
5,41867	101
5,42933	104
5,44000	101
5,45067	104
5,46133	101
5,47200	96
5,48267	95
5,49333	100
5,50400	95
5,51467	99
5,52533	103
5,53600	103
5,54667	107
5,55733	109
5,56800	103
5,57867	106
5,58933	111
5,60000	110
5,61067	106
5,62133	104
5,63200	101
5,64267	104
5,65333	104
5,66400	103
5,67467	100
5,68533	96
5,69600	96
5,70667	100
5,71733	103
5,72800	107
5,73867	100
5,74933	99
5,76000	98
5,77067	101
5,78133	100
5,79200	99
5,80267	97
5,81333	88
5,82400	91
5,83467	89
5,84533	89
5,85600	95
5,86667	99
5,87733	100
5,88800	96
5,89867	99
5,90933	92
5,92000	100
5,93067	97
5,94133	97
5,95200	100
5,96267	98
5,97333	108
5,98400	105
5,99467	106
6,00533	112
6,01600	101
6,02667	98
6,03733	100
6,04800	97
6,05867	100
6,06933	100
6,08000	98
6,09067	102
6,10133	99
6,11200	95
6,12267	100
6,13333	105
6,14400	105
6,15467	101
6,16533	106
6,17600	106
6,18667	100
6,19733	103
6,20800	94
6,21867	94
6,22933	96
6,24000	97
6,25067	92
6,26133	100
6,27200	98
6,28267	105
6,29333	102
6,30400	103
6,31467	103
6,32533	106
6,33600	105
6,34667	103
6,35733	106
6,36800	107
6,37867	106
6,38933	109
6,40000	106
6,41067	98
6,42133	105
6,43200	101
6,44267	98
6,45333	98
6,46400	105
6,47467	100
6,48533	104
6,49600	103
6,50667	106
6,51733	102
6,52800	100
6,53867	101
6,54933	100
6,56000	100
6,57067	98
6,58133	98
6,59200	102
6,60267	99
6,61333	114
6,62400	110
6,63467	107
6,64533	104
6,65600	103
6,66667	106
6,67733	103
6,68800	104
6,69867	100
6,70933	93
6,72000	97
6,73067	100
6,74133	103
6,75200	106
6,76267	101
6,77333	101
6,78400	102
6,79467	101
6,80533	101
6,81600	99
6,82667	104
6,83733	105
6,84800	103
6,85867	101
6,86933	102
6,88000	103
6,89067	107
6,90133	102
6,91200	103
6,92267	98
6,93333	92
6,94400	98
6,95467	98
6,96533	104
6,97600	102
6,98667	103
6,99733	98
7,00800	97
7,01867	100
7,02933	105
7,04000	106
7,05067	103
7,06133	98
7,07200	101
7,08267	99
7,09333	102
7,10400	106
7,11467	107
7,12533	113
7,13600	106
7,14667	102
7,15733	103
7,16800	102
7,17867	102
7,18933	104
7,20000	104
7,21067	101
7,22133	107
7,23200	104
7,24267	106
7,25333	107
7,26400	103
7,27467	97
7,28533	99
7,29600	102
7,30667	102
7,31733	100
7,32800	103
7,33867	106
7,34933	107
7,36000	104
7,37067	107
7,38133	108
7,39200	111
7,40267	111
7,41333	106
7,42400	106
7,43467	104
7,44533	109
7,45600	109
7,46667	115
7,47733	116
7,48800	109
7,49867	108
7,50933	104
7,52000	109
7,53067	107
7,54133	114
7,55200	118
7,56267	109
7,57333	107
7,58400	113
7,59467	115
7,60533	114
7,61600	113
7,62667	114
7,63733	116
7,64800	109
7,65867	105
7,66933	118
7,68000	119
7,69067	114
7,70133	114
7,71200	113
7,72267	111
7,73333	110
7,74400	112
7,75467	114
7,76533	111
7,77600	118
7,78667	117
7,79733	115
7,80800	118
7,81867	114
7,82933	112
7,84000	115
7,85067	114
7,86133	120
7,87200	121
7,88267	114
7,89333	113
7,90400	119
7,91467	118
7,92533	112
7,93600	111
7,94667	113
7,95733	117
7,96800	119
7,97867	116
7,98933	125
8,00000	124
8,01067	123
8,02133	120
8,03200	123
8,04267	120
8,05333	123
8,06400	122
8,07467	120
8,08533	118
8,09600	116
8,10667	120
8,11733	119
8,12800	116
8,13867	123
8,14933	123
8,16000	117
8,17067	117
8,18133	120
8,19200	127
8,20267	126
8,21333	127
8,22400	118
8,23467	118
8,24533	118
8,25600	111
8,26667	114
8,27733	125
8,28800	127
8,29867	128
8,30933	121
8,32000	126
8,33067	120
8,34133	116
8,35200	124
8,36267	129
8,37333	124
8,38400	121
8,39467	117
8,40533	121
8,41600	126
8,42667	129
8,43733	124
8,44800	125
8,45867	120
8,46933	122
8,48000	121
8,49067	127
8,50133	129
8,51200	125
8,52267	126
8,53333	126
8,54400	123
8,55467	122
8,56533	125
8,57600	123
8,58667	128
8,59733	125
8,60800	125
8,61867	126
8,62933	128
8,64000	128
8,65067	125
8,66133	123
8,67200	123
8,68267	124
8,69333	128
8,70400	121
8,71467	122
8,72533	125
8,73600	134
8,74667	137
8,75733	127
8,76800	134
8,77867	126
8,78933	125
8,80000	124
8,81067	118
8,82133	123
8,83200	131
8,84267	130
8,85333	133
8,86400	130
8,87467	131
8,88533	133
8,89600	133
8,90667	129
8,91733	131
8,92800	129
8,93867	124
8,94933	124
8,96000	123
8,97067	126
8,98133	126
8,99200	130
9,00267	127
9,01333	134
9,02400	139
9,03467	137
9,04533	135
9,05600	131
9,06667	127
9,07733	132
9,08800	139
9,09867	137
9,10933	132
9,12000	128
9,13067	130
9,14133	141
9,15200	140
9,16267	139
9,17333	137
9,18400	136
9,19467	138
9,20533	137
9,21600	130
9,22667	130
9,23733	130
9,24800	133
9,25867	134
9,26933	137
9,28000	135
9,29067	134
9,30133	132
9,31200	131
9,32267	134
9,33333	131
9,34400	135
9,35467	130
9,36533	130
9,37600	133
9,38667	133
9,39733	136
9,40800	133
9,41867	130
9,42933	131
9,44000	134
9,45067	135
9,46133	133
9,47200	130
9,48267	132
9,49333	139
9,50400	141
9,51467	139
9,52533	141
9,53600	140
9,54667	145
9,55733	142
9,56800	143
9,57867	144
9,58933	146
9,60000	144
9,61067	147
9,62133	143
9,63200	136
9,64267	142
9,65333	141
9,66400	137
9,67467	142
9,68533	143
9,69600	141
9,70667	142
9,71733	137
9,72800	138
9,73867	137
9,74933	139
9,76000	141
9,77067	139
9,78133	137
9,79200	137
9,80267	140
9,81333	138
9,82400	135
9,83467	135
9,84533	133
9,85600	132
9,86667	137
9,87733	140
9,88800	143
9,89867	143
9,90933	140
9,92000	142
9,93067	133
9,94133	139
9,95200	137
9,96267	134
9,97333	140
9,98400	143
9,99467	140
10,00533	140
10,01600	142
10,02667	143
10,03733	144
10,04800	145
10,05867	142
10,06933	142
10,08000	138
10,09067	132
10,10133	130
10,11200	132
10,12267	135
10,13333	137
10,14400	136
10,15467	138
10,16533	143
10,17600	147
10,18667	150
10,19733	144
10,20800	145
10,21867	146
10,22933	143
10,24000	146
10,25067	141
10,26133	141
10,27200	137
10,28267	140
10,29333	143
10,30400	141
10,31467	140
10,32533	144
10,33600	145
10,34667	149
10,35733	150
10,36800	153
10,37867	151
10,38933	151
10,40000	148
10,41067	140
10,42133	142
10,43200	144
10,44267	149
10,45333	152
10,46400	155
10,47467	152
10,48533	147
10,49600	151
10,50667	157
10,51733	148
10,52800	152
10,53867	153
10,54933	153
10,56000	154
10,57067	156
10,58133	157
10,59200	159
10,60267	163
10,61333	159
10,62400	154
10,63467	159
10,64533	156
10,65600	150
10,66667	154
10,67733	154
10,68800	156
10,69867	152
10,70933	146
10,72000	146
10,73067	148
10,74133	151
10,75200	150
10,76267	155
10,77333	154
10,78400	158
10,79467	156
10,80533	149
10,81600	152
10,82667	150
10,83733	150
10,84800	157
10,85867	153
10,86933	154
10,88000	159
10,89067	156
10,90133	157
10,91200	169
10,92267	164
10,93333	158
10,94400	156
10,95467	152
10,96533	154
10,97600	162
10,98667	163
10,99733	159
11,00800	162
11,01867	154
11,02933	159
11,04000	147
11,05067	151
11,06133	157
11,07200	158
11,08267	160
11,09333	160
11,10400	161
11,11467	161
11,12533	167
11,13600	168
11,14667	169
11,15733	161
11,16800	163
11,17867	164
11,18933	161
11,20000	159
11,21067	155
11,22133	161
11,23200	166
11,24267	170
11,25333	162
11,26400	156
11,27467	159
11,28533	162
11,29600	163
11,30667	168
11,31733	165
11,32800	164
11,33867	162
11,34933	171
11,36000	169
11,37067	175
11,38133	167
11,39200	165
11,40267	164
11,41333	168
11,42400	168
11,43467	164
11,44533	164
11,45600	169
11,46667	174
11,47733	171
11,48800	174
11,49867	172
11,50933	170
11,52000	172
11,53067	175
11,54133	173
11,55200	166
11,56267	165
11,57333	169
11,58400	175
11,59467	171
11,60533	170
11,61600	169
11,62667	172
11,63733	166
11,64800	164
11,65867	167
11,66933	167
11,68000	172
11,69067	174
11,70133	172
11,71200	177
11,72267	177
11,73333	172
11,74400	176
11,75467	179
11,76533	177
11,77600	169
11,78667	170
11,79733	179
11,80800	164
11,81867	166
11,82933	171
11,84000	164
11,85067	171
11,86133	175
11,87200	177
11,88267	176
11,89333	179
11,90400	174
11,91467	176
11,92533	175
11,93600	175
11,94667	180
11,95733	182
11,96800	182
11,97867	181
11,98933	181
12,00000	185
12,01067	183
12,02133	181


