[Header]
Application Name	LabSolutions
Version	5.71
Data File Name	C:\LabSolutions\Data\Project1\Daniel Moreira\COMPOUND1\2025.07.03_2-propanol_1.lcd
Output Date	02/01/2013
Output Time	21:01:21

[File Information]
Type	Data File
Generated	02/01/2013 14:05:40
Generated by	System Administrator
Modified	02/01/2013 14:42:11
Modified by	System Administrator

[Sample Information]
Operator Name	System Administrator
Acquired	02/01/2013 14:06:07
Sample Type	0:Unknown
Level	0
Sample Name	2-propanol_
Sample ID	2-propanol_
ISTD Amount1	1
ISTD Amount2	1
ISTD Amount3	1
ISTD Amount4	1
ISTD Amount5	1
ISTD Amount6	1
ISTD Amount7	1
ISTD Amount8	1
ISTD Amount9	1
ISTD Amount10	1
ISTD Amount11	1
ISTD Amount12	1
ISTD Amount13	1
ISTD Amount14	1
ISTD Amount15	1
ISTD Amount16	1
ISTD Amount17	1
ISTD Amount18	1
ISTD Amount19	1
ISTD Amount20	1
ISTD Amount21	1
ISTD Amount22	1
ISTD Amount23	1
ISTD Amount24	1
ISTD Amount25	1
ISTD Amount26	1
ISTD Amount27	1
ISTD Amount28	1
ISTD Amount29	1
ISTD Amount30	1
ISTD Amount31	1
ISTD Amount32	1
Sample Amount	1
Dilution Factor	1
Vial#	35
Injection Volume	50

[Original Files]
Data File	C:\LabSolutions\Data\Project1\Daniel Moreira\COMPOUND1\2025.07.03_2-propanol_1.lcd
Method File	C:\LabSolutions\Data\Project1\Daniel Moreira\COMPOUND1.lcm
Batch File	
Report Format File	C:\LabSolutions\System\DEFAULT.lsr

[File Description]
2-propanol_

[Configuration]
Instrument Name	HPLC-PC-Instrument
Instrument #	2
Line #	1
# of Detectors	1
Detector ID	PDA
Detector Name	PDA
# of Channels	1

[Peak Table(PDA-Ch2)]
# of Peaks	26
Peak#	R.Time	I.Time	F.Time	Area	Height	A/H	Conc.	Mark	ID#	Name	k'	Plate #	Plate Ht.	Tailing	Resolution	Sep.Factor	Area Ratio	Height Ratio	Conc. %	Norm Conc.
1	2,930	2,816	3,104	56105	6445	8,705	14,648	   			0,000	2814	53,313	0,000	0,000	0,000	0	0	0,000	0,000
2	3,158	3,104	3,285	43122	12005	3,592	11,258	 V 			0,078	18507	8,105	0,000	1,455	0,000	0	0	0,000	0,000
3	3,317	3,285	3,371	5077	1168	4,348	1,326	 V 			0,132	3511	42,726	0,000	1,003	1,696	0	0	0,000	0,000
4	3,411	3,371	3,509	53776	16925	3,177	14,040	 V 			0,164	33178	4,521	0,000	0,625	1,241	0	0	0,000	0,000
5	3,541	3,509	3,627	17386	2995	5,805	4,539	 V 			0,209	466	321,647	0,000	0,357	1,272	0	0	0,000	0,000
6	3,680	3,627	3,808	26573	3299	8,056	6,938	 V 			0,256	2490	60,229	0,000	0,291	1,227	0	0	0,000	0,000
7	3,936	3,808	3,968	24057	2867	8,391	6,281	 V 			0,343	163	919,601	0,000	0,335	1,342	0	0	0,000	0,000
8	4,050	3,968	4,107	22685	3953	5,739	5,922	 V 			0,382	5596	26,806	0,000	0,157	1,113	0	0	0,000	0,000
9	4,145	4,107	4,224	9388	1733	5,417	2,451	 V 			0,415	4560	32,894	0,000	0,413	1,085	0	0	0,000	0,000
10	4,351	4,224	4,395	15455	2356	6,561	4,035	 V 			0,485	5368	27,942	0,000	0,850	1,169	0	0	0,000	0,000
11	4,431	4,395	4,512	9731	2058	4,729	2,541	 V 			0,512	7852	19,102	0,000	0,369	1,057	0	0	0,000	0,000
12	4,564	4,512	4,715	11733	1381	8,498	3,063	   			0,558	7030	21,338	0,000	0,636	1,088	0	0	0,000	0,000
13	4,767	4,715	4,811	6089	1627	3,742	1,590	 V 			0,627	14220	10,549	0,000	1,073	1,124	0	0	0,000	0,000
14	15,430	15,285	15,861	2394	124	19,250	0,625	   			4,266	30756	4,877	2,021	41,666	6,805	0	0	0,000	0,000
15	18,699	18,571	18,891	1028	111	9,261	0,269	   			5,381	76549	1,960	1,133	10,506	1,262	0	0	0,000	0,000
16	19,602	19,296	19,947	15071	985	15,299	3,935	   			5,690	35572	4,217	1,036	2,632	1,057	0	0	0,000	0,000
17	20,945	20,811	21,152	1111	142	7,820	0,290	   			6,148	121190	1,238	1,001	4,095	1,081	0	0	0,000	0,000
18	22,187	21,856	22,347	2673	146	18,369	0,698	   			6,572	18548	8,087	0,000	2,782	1,069	0	0	0,000	0,000
19	22,471	22,347	22,677	2068	196	10,568	0,540	 V 			6,669	64690	2,319	0,000	0,566	1,015	0	0	0,000	0,000
20	23,304	23,019	23,563	5518	410	13,448	1,441	   			6,953	67913	2,209	0,941	2,343	1,043	0	0	0,000	0,000
21	24,777	24,544	24,939	5879	480	12,259	1,535	   			7,456	73795	2,033	0,000	4,076	1,072	0	0	0,000	0,000
22	25,168	24,939	25,461	26590	2586	10,284	6,942	 V 			7,589	130311	1,151	0,000	1,216	1,018	0	0	0,000	0,000
23	25,743	25,536	25,941	2421	235	10,310	0,632	   			7,785	133635	1,122	1,014	2,051	1,026	0	0	0,000	0,000
24	26,497	26,261	26,699	5241	463	11,326	1,368	   			8,043	115192	1,302	0,985	2,539	1,033	0	0	0,000	0,000
25	27,925	27,723	28,032	2158	214	10,083	0,563	   			8,530	179019	0,838	0,765	4,956	1,061	0	0	0,000	0,000
26	29,911	29,685	30,187	9698	856	11,334	2,532	   			9,208	155812	0,963	1,148	7,003	1,079	0	0	0,000	0,000

[Compound Results(PDA)]
# of IDs	0

[PDA Multi Chromatogram(Ch2)]
# of Points	      3378
Interval(msec)	640
Start Time(min)	0
End Time(min)	36,0213
Intensity Units	mAU
Intensity Multiplier	1
Type	MultiChrom
Wavelength(nm)	280
Bandwidth(nm)	4
R.Time (min)	Intensity
0,00000	0
0,01067	0
0,02133	0
0,03200	0
0,04267	0
0,05333	0
0,06400	0
0,07467	0
0,08533	0
0,09600	0
0,10667	0
0,11733	5
0,12800	3
0,13867	-0
0,14933	0
0,16000	-2
0,17067	-3
0,18133	-2
0,19200	-2
0,20267	-8
0,21333	-2
0,22400	1
0,23467	-1
0,24533	3
0,25600	-2
0,26667	-0
0,27733	-1
0,28800	-7
0,29867	-4
0,30933	-7
0,32000	-5
0,33067	-5
0,34133	-0
0,35200	2
0,36267	0
0,37333	-5
0,38400	-3
0,39467	-5
0,40533	-5
0,41600	-6
0,42667	-6
0,43733	-4
0,44800	-7
0,45867	-5
0,46933	-2
0,48000	0
0,49067	-7
0,50133	-8
0,51200	-3
0,52267	-2
0,53333	-7
0,54400	-5
0,55467	-2
0,56533	2
0,57600	1
0,58667	1
0,59733	-1
0,60800	-1
0,61867	-3
0,62933	-1
0,64000	-2
0,65067	-3
0,66133	-4
0,67200	-4
0,68267	1
0,69333	-5
0,70400	-4
0,71467	-5
0,72533	-2
0,73600	1
0,74667	0
0,75733	-3
0,76800	3
0,77867	-0
0,78933	5
0,80000	8
0,81067	2
0,82133	4
0,83200	1
0,84267	5
0,85333	6
0,86400	6
0,87467	0
0,88533	3
0,89600	2
0,90667	3
0,91733	9
0,92800	4
0,93867	5
0,94933	3
0,96000	-2
0,97067	-3
0,98133	-6
0,99200	-4
1,00267	-3
1,01333	-1
1,02400	0
1,03467	2
1,04533	1
1,05600	5
1,06667	-2
1,07733	1
1,08800	5
1,09867	4
1,10933	1
1,12000	4
1,13067	6
1,14133	1
1,15200	1
1,16267	-0
1,17333	0
1,18400	1
1,19467	0
1,20533	1
1,21600	1
1,22667	3
1,23733	7
1,24800	8
1,25867	2
1,26933	-3
1,28000	-3
1,29067	-2
1,30133	-1
1,31200	-5
1,32267	-6
1,33333	-8
1,34400	-5
1,35467	-5
1,36533	-3
1,37600	-1
1,38667	-2
1,39733	-2
1,40800	-2
1,41867	1
1,42933	1
1,44000	3
1,45067	-0
1,46133	-0
1,47200	2
1,48267	5
1,49333	-0
1,50400	-2
1,51467	0
1,52533	-0
1,53600	8
1,54667	5
1,55733	2
1,56800	12
1,57867	9
1,58933	6
1,60000	5
1,61067	7
1,62133	10
1,63200	7
1,64267	7
1,65333	6
1,66400	5
1,67467	5
1,68533	9
1,69600	10
1,70667	8
1,71733	6
1,72800	9
1,73867	8
1,74933	7
1,76000	11
1,77067	10
1,78133	9
1,79200	9
1,80267	13
1,81333	13
1,82400	15
1,83467	11
1,84533	16
1,85600	15
1,86667	18
1,87733	16
1,88800	18
1,89867	19
1,90933	21
1,92000	18
1,93067	21
1,94133	18
1,95200	18
1,96267	16
1,97333	15
1,98400	15
1,99467	19
2,00533	23
2,01600	20
2,02667	18
2,03733	17
2,04800	18
2,05867	13
2,06933	21
2,08000	15
2,09067	15
2,10133	14
2,11200	19
2,12267	18
2,13333	18
2,14400	19
2,15467	19
2,16533	19
2,17600	19
2,18667	21
2,19733	24
2,20800	28
2,21867	28
2,22933	25
2,24000	30
2,25067	27
2,26133	24
2,27200	19
2,28267	19
2,29333	20
2,30400	21
2,31467	23
2,32533	28
2,33600	25
2,34667	26
2,35733	27
2,36800	24
2,37867	21
2,38933	20
2,40000	20
2,41067	22
2,42133	26
2,43200	20
2,44267	18
2,45333	19
2,46400	23
2,47467	20
2,48533	20
2,49600	23
2,50667	19
2,51733	20
2,52800	22
2,53867	23
2,54933	21
2,56000	22
2,57067	24
2,58133	19
2,59200	24
2,60267	25
2,61333	23
2,62400	24
2,63467	21
2,64533	21
2,65600	20
2,66667	20
2,67733	20
2,68800	21
2,69867	26
2,70933	30
2,72000	23
2,73067	23
2,74133	16
2,75200	21
2,76267	25
2,77333	24
2,78400	25
2,79467	22
2,80533	23
2,81600	21
2,82667	29
2,83733	47
2,84800	82
2,85867	179
2,86933	436
2,88000	1037
2,89067	2205
2,90133	3842
2,91200	5422
2,92267	6354
2,93333	6460
2,94400	6051
2,95467	5526
2,96533	5074
2,97600	4724
2,98667	4447
2,99733	4201
3,00800	3957
3,01867	3716
3,02933	3490
3,04000	3281
3,05067	3117
3,06133	2996
3,07200	2909
3,08267	2853
3,09333	2807
3,10400	2775
3,11467	2795
3,12533	3110
3,13600	5064
3,14667	9457
3,15733	12006
3,16800	10334
3,17867	7152
3,18933	4526
3,20000	2917
3,21067	2098
3,22133	1728
3,23200	1537
3,24267	1336
3,25333	1092
3,26400	850
3,27467	685
3,28533	679
3,29600	851
3,30667	1060
3,31733	1160
3,32800	1136
3,33867	1061
3,34933	954
3,36000	833
3,37067	810
3,38133	1309
3,39200	5572
3,40267	15370
3,41333	16912
3,42400	12392
3,43467	8096
3,44533	5415
3,45600	4009
3,46667	3333
3,47733	3032
3,48800	2877
3,49867	2780
3,50933	2735
3,52000	2762
3,53067	2869
3,54133	2974
3,55200	2935
3,56267	2749
3,57333	2517
3,58400	2305
3,59467	2135
3,60533	2008
3,61600	1863
3,62667	1803
3,63733	1903
3,64800	2233
3,65867	2728
3,66933	3146
3,68000	3270
3,69067	3138
3,70133	2908
3,71200	2685
3,72267	2503
3,73333	2361
3,74400	2253
3,75467	2156
3,76533	2078
3,77600	1997
3,78667	1923
3,79733	1867
3,80800	1845
3,81867	1866
3,82933	1914
3,84000	1999
3,85067	2110
3,86133	2248
3,87200	2414
3,88267	2543
3,89333	2644
3,90400	2689
3,91467	2728
3,92533	2788
3,93600	2823
3,94667	2790
3,95733	2726
3,96800	2694
3,97867	2736
3,98933	2802
4,00000	2843
4,01067	2921
4,02133	3115
4,03200	3359
4,04267	3758
4,05333	3902
4,06400	3304
4,07467	2325
4,08533	1538
4,09600	1133
4,10667	1065
4,11733	1231
4,12800	1484
4,13867	1662
4,14933	1677
4,16000	1577
4,17067	1425
4,18133	1266
4,19200	1105
4,20267	968
4,21333	855
4,22400	790
4,23467	825
4,24533	1001
4,25600	1220
4,26667	1352
4,27733	1393
4,28800	1388
4,29867	1415
4,30933	1546
4,32000	1801
4,33067	2034
4,34133	2060
4,35200	2288
4,36267	1903
4,37333	1315
4,38400	850
4,39467	713
4,40533	1086
4,41600	1674
4,42667	1985
4,43733	1968
4,44800	1723
4,45867	1478
4,46933	1500
4,48000	1597
4,49067	1097
4,50133	364
4,51200	-77
4,52267	65
4,53333	568
4,54400	916
4,55467	1043
4,56533	1060
4,57600	1035
4,58667	950
4,59733	801
4,60800	611
4,61867	409
4,62933	234
4,64000	112
4,65067	56
4,66133	47
4,67200	54
4,68267	40
4,69333	-4
4,70400	-46
4,71467	-49
4,72533	16
4,73600	136
4,74667	244
4,75733	311
4,76800	363
4,77867	284
4,78933	-330
4,80000	-1242
4,81067	-1468
4,82133	-1243
4,83200	-967
4,84267	-757
4,85333	-589
4,86400	-446
4,87467	-325
4,88533	-226
4,89600	-147
4,90667	-78
4,91733	-35
4,92800	-4
4,93867	19
4,94933	42
4,96000	50
4,97067	60
4,98133	59
4,99200	67
5,00267	72
5,01333	75
5,02400	76
5,03467	78
5,04533	79
5,05600	82
5,06667	86
5,07733	86
5,08800	88
5,09867	88
5,10933	87
5,12000	85
5,13067	89
5,14133	89
5,15200	93
5,16267	92
5,17333	96
5,18400	92
5,19467	93
5,20533	89
5,21600	88
5,22667	87
5,23733	84
5,24800	79
5,25867	84
5,26933	82
5,28000	85
5,29067	84
5,30133	87
5,31200	87
5,32267	91
5,33333	87
5,34400	86
5,35467	82
5,36533	81
5,37600	82
5,38667	80
5,39733	79
5,40800	81
5,41867	84
5,42933	81
5,44000	81
5,45067	81
5,46133	82
5,47200	84
5,48267	82
5,49333	79
5,50400	78
5,51467	80
5,52533	76
5,53600	77
5,54667	75
5,55733	78
5,56800	82
5,57867	78
5,58933	78
5,60000	78
5,61067	78
5,62133	80
5,63200	74
5,64267	76
5,65333	72
5,66400	72
5,67467	73
5,68533	72
5,69600	74
5,70667	73
5,71733	74
5,72800	71
5,73867	69
5,74933	76
5,76000	71
5,77067	71
5,78133	77
5,79200	75
5,80267	74
5,81333	71
5,82400	66
5,83467	64
5,84533	65
5,85600	67
5,86667	71
5,87733	68
5,88800	68
5,89867	64
5,90933	61
5,92000	66
5,93067	67
5,94133	72
5,95200	68
5,96267	69
5,97333	65
5,98400	64
5,99467	67
6,00533	65
6,01600	61
6,02667	64
6,03733	60
6,04800	63
6,05867	59
6,06933	63
6,08000	67
6,09067	63
6,10133	64
6,11200	62
6,12267	66
6,13333	65
6,14400	63
6,15467	58
6,16533	62
6,17600	62
6,18667	60
6,19733	62
6,20800	60
6,21867	64
6,22933	63
6,24000	63
6,25067	65
6,26133	63
6,27200	65
6,28267	65
6,29333	65
6,30400	63
6,31467	65
6,32533	68
6,33600	62
6,34667	66
6,35733	64
6,36800	67
6,37867	64
6,38933	63
6,40000	66
6,41067	72
6,42133	70
6,43200	72
6,44267	70
6,45333	63
6,46400	68
6,47467	70
6,48533	67
6,49600	72
6,50667	73
6,51733	70
6,52800	73
6,53867	75
6,54933	68
6,56000	69
6,57067	68
6,58133	66
6,59200	69
6,60267	66
6,61333	65
6,62400	65
6,63467	67
6,64533	70
6,65600	71
6,66667	70
6,67733	71
6,68800	67
6,69867	65
6,70933	67
6,72000	66
6,73067	69
6,74133	77
6,75200	78
6,76267	76
6,77333	69
6,78400	68
6,79467	69
6,80533	67
6,81600	71
6,82667	67
6,83733	67
6,84800	66
6,85867	70
6,86933	72
6,88000	72
6,89067	70
6,90133	73
6,91200	75
6,92267	74
6,93333	78
6,94400	76
6,95467	73
6,96533	68
6,97600	68
6,98667	66
6,99733	69
7,00800	73
7,01867	72
7,02933	76
7,04000	77
7,05067	75
7,06133	68
7,07200	75
7,08267	77
7,09333	79
7,10400	76
7,11467	78
7,12533	79
7,13600	80
7,14667	81
7,15733	83
7,16800	82
7,17867	81
7,18933	84
7,20000	82
7,21067	88
7,22133	83
7,23200	84
7,24267	88
7,25333	88
7,26400	87
7,27467	88
7,28533	86
7,29600	92
7,30667	90
7,31733	89
7,32800	96
7,33867	92
7,34933	90
7,36000	96
7,37067	96
7,38133	99
7,39200	103
7,40267	101
7,41333	104
7,42400	106
7,43467	102
7,44533	106
7,45600	107
7,46667	110
7,47733	108
7,48800	108
7,49867	114
7,50933	111
7,52000	114
7,53067	113
7,54133	112
7,55200	114
7,56267	117
7,57333	121
7,58400	121
7,59467	124
7,60533	126
7,61600	126
7,62667	128
7,63733	129
7,64800	135
7,65867	130
7,66933	130
7,68000	136
7,69067	136
7,70133	140
7,71200	142
7,72267	140
7,73333	141
7,74400	145
7,75467	146
7,76533	157
7,77600	155
7,78667	156
7,79733	156
7,80800	154
7,81867	156
7,82933	159
7,84000	167
7,85067	163
7,86133	167
7,87200	167
7,88267	168
7,89333	175
7,90400	177
7,91467	176
7,92533	178
7,93600	177
7,94667	180
7,95733	181
7,96800	186
7,97867	187
7,98933	188
8,00000	190
8,01067	191
8,02133	191
8,03200	193
8,04267	195
8,05333	200
8,06400	201
8,07467	200
8,08533	205
8,09600	208
8,10667	212
8,11733	214
8,12800	211
8,13867	211
8,14933	213
8,16000	208
8,17067	215
8,18133	215
8,19200	219
8,20267	222
8,21333	224
8,22400	224
8,23467	223
8,24533	220
8,25600	225
8,26667	228
8,27733	225
8,28800	231
8,29867	234
8,30933	239
8,32000	235
8,33067	239
8,34133	238
8,35200	237
8,36267	234
8,37333	230
8,38400	232
8,39467	234
8,40533	230
8,41600	236
8,42667	240
8,43733	244
8,44800	242
8,45867	242
8,46933	238
8,48000	235
8,49067	235
8,50133	235
8,51200	236
8,52267	238
8,53333	242
8,54400	243
8,55467	236
8,56533	235
8,57600	237
8,58667	235
8,59733	234
8,60800	234
8,61867	232
8,62933	228
8,64000	232
8,65067	226
8,66133	226
8,67200	227
8,68267	223
8,69333	228
8,70400	227
8,71467	220
8,72533	221
8,73600	221
8,74667	223
8,75733	217
8,76800	221
8,77867	218
8,78933	216
8,80000	219
8,81067	212
8,82133	209
8,83200	203
8,84267	205
8,85333	204
8,86400	200
8,87467	198
8,88533	196
8,89600	199
8,90667	201
8,91733	195
8,92800	194
8,93867	192
8,94933	196
8,96000	191
8,97067	187
8,98133	187
8,99200	187
9,00267	188
9,01333	180
9,02400	176
9,03467	176
9,04533	177
9,05600	167
9,06667	167
9,07733	164
9,08800	161
9,09867	162
9,10933	157
9,12000	158
9,13067	207
9,14133	175
9,15200	163
9,16267	151
9,17333	146
9,18400	149
9,19467	142
9,20533	147
9,21600	143
9,22667	135
9,23733	138
9,24800	136
9,25867	134
9,26933	134
9,28000	129
9,29067	126
9,30133	121
9,31200	123
9,32267	125
9,33333	121
9,34400	121
9,35467	118
9,36533	114
9,37600	111
9,38667	115
9,39733	112
9,40800	107
9,41867	106
9,42933	97
9,44000	97
9,45067	98
9,46133	97
9,47200	98
9,48267	96
9,49333	95
9,50400	92
9,51467	90
9,52533	92
9,53600	88
9,54667	84
9,55733	83
9,56800	78
9,57867	77
9,58933	74
9,60000	78
9,61067	72
9,62133	67
9,63200	61
9,64267	57
9,65333	57
9,66400	61
9,67467	56
9,68533	59
9,69600	54
9,70667	47
9,71733	51
9,72800	43
9,73867	42
9,74933	37
9,76000	39
9,77067	37
9,78133	37
9,79200	36
9,80267	31
9,81333	31
9,82400	32
9,83467	25
9,84533	23
9,85600	20
9,86667	17
9,87733	17
9,88800	13
9,89867	16
9,90933	13
9,92000	22
9,93067	14
9,94133	14
9,95200	14
9,96267	11
9,97333	17
9,98400	14
9,99467	7
10,00533	8
10,01600	3
10,02667	0
10,03733	1
10,04800	-2
10,05867	-2
10,06933	-3
10,08000	-3
10,09067	-3
10,10133	-8
10,11200	-11
10,12267	-13
10,13333	-12
10,14400	-10
10,15467	-15
10,16533	-16
10,17600	-16
10,18667	-16
10,19733	-22
10,20800	-22
10,21867	-24
10,22933	-22
10,24000	-29
10,25067	-33
10,26133	-32
10,27200	-35
10,28267	-37
10,29333	-41
10,30400	-41
10,31467	-41
10,32533	-46
10,33600	-50
10,34667	-49
10,35733	-46
10,36800	-56
10,37867	-61
10,38933	-58
10,40000	-60
10,41067	-65
10,42133	-62
10,43200	-62
10,44267	-64
10,45333	-71
10,46400	-74
10,47467	-71
10,48533	-75
10,49600	-72
10,50667	-77
10,51733	-76
10,52800	-80
10,53867	-87
10,54933	-89
10,56000	-90
10,57067	-93
10,58133	-96
10,59200	-97
10,60267	-95
10,61333	-95
10,62400	-97
10,63467	-101
10,64533	-105
10,65600	-106
10,66667	-108
10,67733	-110
10,68800	-107
10,69867	-110
10,70933	-113
10,72000	-119
10,73067	-122
10,74133	-118
10,75200	-121
10,76267	-124
10,77333	-121
10,78400	-123
10,79467	-127
10,80533	-125
10,81600	-125
10,82667	-131
10,83733	-131
10,84800	-129
10,85867	-133
10,86933	-130
10,88000	-134
10,89067	-138
10,90133	-142
10,91200	-139
10,92267	-141
10,93333	-144
10,94400	-144
10,95467	-145
10,96533	-142
10,97600	-144
10,98667	-141
10,99733	-143
11,00800	-143
11,01867	-149
11,02933	-148
11,04000	-145
11,05067	-151
11,06133	-149
11,07200	-153
11,08267	-154
11,09333	-148
11,10400	-151
11,11467	-149
11,12533	-153
11,13600	-148
11,14667	-144
11,15733	-152
11,16800	-152
11,17867	-153
11,18933	-150
11,20000	-157
11,21067	-156
11,22133	-142
11,23200	-141
11,24267	-135
11,25333	-122
11,26400	-124
11,27467	-124
11,28533	-125
11,29600	-122
11,30667	-123
11,31733	-113
11,32800	-117
11,33867	-116
11,34933	-116
11,36000	-116
11,37067	-115
11,38133	-117
11,39200	-118
11,40267	-114
11,41333	-120
11,42400	-123
11,43467	-124
11,44533	-121
11,45600	-128
11,46667	-125
11,47733	-125
11,48800	-128
11,49867	-127
11,50933	-131
11,52000	-131
11,53067	-136
11,54133	-133
11,55200	-138
11,56267	-121
11,57333	-121
11,58400	-130
11,59467	-139
11,60533	-147
11,61600	-147
11,62667	-151
11,63733	-151
11,64800	-152
11,65867	-151
11,66933	-154
11,68000	-160
11,69067	-154
11,70133	-156
11,71200	-158
11,72267	-159
11,73333	-162
11,74400	-161
11,75467	-165
11,76533	-166
11,77600	-166
11,78667	-168
11,79733	-172
11,80800	-176
11,81867	-176
11,82933	-179
11,84000	-182
11,85067	-181
11,86133	-180
11,87200	-183
11,88267	-183
11,89333	-185
11,90400	-178
11,91467	-179
11,92533	-188
11,93600	-193
11,94667	-190
11,95733	-191
11,96800	-191
11,97867	-192
11,98933	-195
12,00000	-197
12,01067	-192
12,02133	-201
12,03200	-208
12,04267	-217
12,05333	-220
12,06400	-221
12,07467	-218
12,08533	-220
12,09600	-222
12,10667	-225
12,11733	-226
12,12800	-232
12,13867	-234
12,14933	-235
12,16000	-238
12,17067	-241
12,18133	-244
12,19200	-254
12,20267	-252
12,21333	-251
12,22400	-256
12,23467	-260
12,24533	-262
12,25600	-263
12,26667	-264
12,27733	-265
12,28800	-261
12,29867	-268
12,30933	-270
12,32000	-269
12,33067	-264
12,34133	-265
12,35200	-264
12,36267	-266
12,37333	-263
12,38400	-248
12,39467	-257
12,40533	-254
12,41600	-255
12,42667	-262
12,43733	-257
12,44800	-252
12,45867	-251
12,46933	-249
12,48000	-248
12,49067	-246
12,50133	-246
12,51200	-250
12,52267	-258
12,53333	-255
12,54400	-255
12,55467	-259
12,56533	-257
12,57600	-257
12,58667	-260
12,59733	-263
12,60800	-266
12,61867	-270
12,62933	-268
12,64000	-270
12,65067	-277
12,66133	-282
12,67200	-282
12,68267	-289
12,69333	-286
12,70400	-289
12,71467	-292
12,72533	-296
12,73600	-302
12,74667	-307
12,75733	-311
12,76800	-309
12,77867	-307
12,78933	-309
12,80000	-308
12,81067	-297
12,82133	-248
12,83200	-284
12,84267	-299
12,85333	-301
12,86400	-303
12,87467	-297
12,88533	-293
12,89600	-286
12,90667	-290
12,91733	-290
12,92800	-286
12,93867	-282
12,94933	-285
12,96000	-285
12,97067	-286
12,98133	-282
12,99200	-280
13,00267	-282
13,01333	-280
13,02400	-278
13,03467	-280
13,04533	-279
13,05600	-281
13,06667	-278
13,07733	-276
13,08800	-274
13,09867	-276
13,10933	-274
13,12000	-273
13,13067	-274
13,14133	-274
13,15200	-268
13,16267	-274
13,17333	-279
13,18400	-277
13,19467	-282
13,20533	-283
13,21600	-285
13,22667	-286
13,23733	-283
13,24800	-286
13,25867	-289
13,26933	-288
13,28000	-293
13,29067	-292
13,30133	-290
13,31200	-288
13,32267	-289
13,33333	-285
13,34400	-283
13,35467	-279
13,36533	-280
13,37600	-277
13,38667	-270
13,39733	-264
13,40800	-262
13,41867	-260
13,42933	-257
13,44000	-258
13,45067	-259
13,46133	-262
13,47200	-262
13,48267	-265
13,49333	-272
13,50400	-280
13,51467	-293
13,52533	-301
13,53600	-307
13,54667	-318
13,55733	-330
13,56800	-338
13,57867	-338
13,58933	-345
13,60000	-352
13,61067	-354
13,62133	-354
13,63200	-363
13,64267	-359
13,65333	-365
13,66400	-368
13,67467	-368
13,68533	-372
13,69600	-369
13,70667	-370
13,71733	-380
13,72800	-379
13,73867	-381
13,74933	-383
13,76000	-382
13,77067	-382
13,78133	-385
13,79200	-383
13,80267	-383
13,81333	-382
13,82400	-375
13,83467	-378
13,84533	-382
13,85600	-378
13,86667	-375
13,87733	-367
13,88800	-367
13,89867	-362
13,90933	-363
13,92000	-356
13,93067	-354
13,94133	-347
13,95200	-339
13,96267	-350
13,97333	-358
13,98400	-356
13,99467	-360
14,00533	-360
14,01600	-355
14,02667	-355
14,03733	-359
14,04800	-361
14,05867	-360
14,06933	-359
14,08000	-360
14,09067	-360
14,10133	-365
14,11200	-371
14,12267	-373
14,13333	-375
14,14400	-384
14,15467	-386
14,16533	-386
14,17600	-389
14,18667	-395
14,19733	-398
14,20800	-405
14,21867	-408
14,22933	-408
14,24000	-408
14,25067	-411
14,26133	-416
14,27200	-416
14,28267	-419
14,29333	-418
14,30400	-420
14,31467	-421
14,32533	-420
14,33600	-425
14,34667	-425
14,35733	-426
14,36800	-419
14,37867	-418
14,38933	-420
14,40000	-422
14,41067	-414
14,42133	-413
14,43200	-387
14,44267	-395
14,45333	-398
14,46400	-401
14,47467	-395
14,48533	-395
14,49600	-398
14,50667	-394
14,51733	-389
14,52800	-394
14,53867	-395
14,54933	-400
14,56000	-400
14,57067	-402
14,58133	-410
14,59200	-408
14,60267	-409
14,61333	-417
14,62400	-414
14,63467	-413
14,64533	-417
14,65600	-418
14,66667	-409
14,67733	-415
14,68800	-414
14,69867	-416
14,70933	-417
14,72000	-419
14,73067	-415
14,74133	-411
14,75200	-419
14,76267	-416
14,77333	-413
14,78400	-415
14,79467	-410
14,80533	-410
14,81600	-405
14,82667	-399
14,83733	-400
14,84800	-402
14,85867	-397
14,86933	-389
14,88000	-388
14,89067	-391
14,90133	-388
14,91200	-386
14,92267	-371
14,93333	-343
14,94400	-355
14,95467	-376
14,96533	-379
14,97600	-383
14,98667	-393
14,99733	-402
15,00800	-403
15,01867	-410
15,02933	-416
15,04000	-418
15,05067	-420
15,06133	-421
15,07200	-423
15,08267	-427
15,09333	-436
15,10400	-422
15,11467	-437
15,12533	-438
15,13600	-436
15,14667	-435
15,15733	-438
15,16800	-439
15,17867	-438
15,18933	-437
15,20000	-435
15,21067	-432
15,22133	-427
15,23200	-426
15,24267	-427
15,25333	-425
15,26400	-417
15,27467	-417
15,28533	-407
15,29600	-400
15,30667	-397
15,31733	-393
15,32800	-389
15,33867	-377
15,34933	-372
15,36000	-362
15,37067	-347
15,38133	-335
15,39200	-321
15,40267	-313
15,41333	-301
15,42400	-293
15,43467	-293
15,44533	-295
15,45600	-299
15,46667	-307
15,47733	-310
15,48800	-320
15,49867	-325
15,50933	-337
15,52000	-344
15,53067	-344
15,54133	-355
15,55200	-354
15,56267	-350
15,57333	-352
15,58400	-354
15,59467	-351
15,60533	-340
15,61600	-339
15,62667	-341
15,63733	-330
15,64800	-331
15,65867	-331
15,66933	-334
15,68000	-338
15,69067	-344
15,70133	-343
15,71200	-351
15,72267	-357
15,73333	-367
15,74400	-377
15,75467	-386
15,76533	-394
15,77600	-399
15,78667	-410
15,79733	-415
15,80800	-423
15,81867	-433
15,82933	-429
15,84000	-434
15,85067	-444
15,86133	-447
15,87200	-441
15,88267	-443
15,89333	-444
15,90400	-440
15,91467	-437
15,92533	-435
15,93600	-435
15,94667	-423
15,95733	-427
15,96800	-414
15,97867	-412
15,98933	-414
16,00000	-405
16,01067	-394
16,02133	-394
16,03200	-393
16,04267	-387
16,05333	-386
16,06400	-385
16,07467	-382
16,08533	-390
16,09600	-392
16,10667	-368
16,11733	-389
16,12800	-369
16,13867	-373
16,14933	-400
16,16000	-414
16,17067	-419
16,18133	-426
16,19200	-435
16,20267	-433
16,21333	-440
16,22400	-443
16,23467	-446
16,24533	-455
16,25600	-456
16,26667	-447
16,27733	-451
16,28800	-460
16,29867	-466
16,30933	-467
16,32000	-467
16,33067	-464
16,34133	-469
16,35200	-467
16,36267	-467
16,37333	-467
16,38400	-467
16,39467	-469
16,40533	-472
16,41600	-472
16,42667	-468
16,43733	-464
16,44800	-465
16,45867	-466
16,46933	-468
16,48000	-471
16,49067	-481
16,50133	-480
16,51200	-481
16,52267	-480
16,53333	-481
16,54400	-479
16,55467	-482
16,56533	-483
16,57600	-484
16,58667	-485
16,59733	-485
16,60800	-485
16,61867	-483
16,62933	-484
16,64000	-484
16,65067	-482
16,66133	-475
16,67200	-478
16,68267	-475
16,69333	-471
16,70400	-475
16,71467	-474
16,72533	-476
16,73600	-467
16,74667	-460
16,75733	-467
16,76800	-469
16,77867	-470
16,78933	-465
16,80000	-461
16,81067	-463
16,82133	-463
16,83200	-463
16,84267	-469
16,85333	-475
16,86400	-478
16,87467	-484
16,88533	-482
16,89600	-479
16,90667	-486
16,91733	-488
16,92800	-494
16,93867	-488
16,94933	-487
16,96000	-490
16,97067	-489
16,98133	-485
16,99200	-494
17,00267	-499
17,01333	-503
17,02400	-505
17,03467	-507
17,04533	-507
17,05600	-509
17,06667	-506
17,07733	-511
17,08800	-514
17,09867	-520
17,10933	-519
17,12000	-515
17,13067	-517
17,14133	-510
17,15200	-513
17,16267	-517
17,17333	-518
17,18400	-514
17,19467	-514
17,20533	-508
17,21600	-509
17,22667	-508
17,23733	-507
17,24800	-508
17,25867	-510
17,26933	-503
17,28000	-503
17,29067	-500
17,30133	-501
17,31200	-499
17,32267	-504
17,33333	-505
17,34400	-504
17,35467	-504
17,36533	-503
17,37600	-499
17,38667	-500
17,39733	-502
17,40800	-503
17,41867	-501
17,42933	-501
17,44000	-498
17,45067	-499
17,46133	-500
17,47200	-499
17,48267	-495
17,49333	-336
17,50400	-367
17,51467	-442
17,52533	-469
17,53600	-476
17,54667	-479
17,55733	-481
17,56800	-477
17,57867	-470
17,58933	-466
17,60000	-466
17,61067	-466
17,62133	-467
17,63200	-460
17,64267	-457
17,65333	-458
17,66400	-456
17,67467	-455
17,68533	-455
17,69600	-456
17,70667	-452
17,71733	-449
17,72800	-446
17,73867	-442
17,74933	-437
17,76000	-428
17,77067	-422
17,78133	-415
17,79200	-409
17,80267	-404
17,81333	-402
17,82400	-399
17,83467	-400
17,84533	-397
17,85600	-407
17,86667	-401
17,87733	-405
17,88800	-413
17,89867	-412
17,90933	-419
17,92000	-420
17,93067	-425
17,94133	-424
17,95200	-426
17,96267	-431
17,97333	-432
17,98400	-433
17,99467	-437
18,00533	-440
18,01600	-438
18,02667	-437
18,03733	-442
18,04800	-439
18,05867	-441
18,06933	-444
18,08000	-441
18,09067	-446
18,10133	-443
18,11200	-443
18,12267	-436
18,13333	-438
18,14400	-447
18,15467	-447
18,16533	-444
18,17600	-439
18,18667	-438
18,19733	-437
18,20800	-443
18,21867	-439
18,22933	-437
18,24000	-434
18,25067	-432
18,26133	-430
18,27200	-429
18,28267	-429
18,29333	-422
18,30400	-415
18,31467	-414
18,32533	-410
18,33600	-406
18,34667	-407
18,35733	-398
18,36800	-393
18,37867	-386
18,38933	-381
18,40000	-377
18,41067	-367
18,42133	-367
18,43200	-362
18,44267	-362
18,45333	-363
18,46400	-357
18,47467	-360
18,48533	-360
18,49600	-361
18,50667	-360
18,51733	-360
18,52800	-363
18,53867	-364
18,54933	-368
18,56000	-370
18,57067	-371
18,58133	-364
18,59200	-360
18,60267	-342
18,61333	-337
18,62400	-327
18,63467	-312
18,64533	-302
18,65600	-292
18,66667	-279
18,67733	-268
18,68800	-262
18,69867	-259
18,70933	-262
18,72000	-264
18,73067	-271
18,74133	-277
18,75200	-286
18,76267	-293
18,77333	-301
18,78400	-315
18,79467	-324
18,80533	-333
18,81600	-341
18,82667	-346
18,83733	-354
18,84800	-364
18,85867	-368
18,86933	-363
18,88000	-367
18,89067	-370
18,90133	-372
18,91200	-374
18,92267	-377
18,93333	-377
18,94400	-380
18,95467	-381
18,96533	-383
18,97600	-384
18,98667	-384
18,99733	-386
19,00800	-384
19,01867	-388
19,02933	-387
19,04000	-386
19,05067	-378
19,06133	-379
19,07200	-379
19,08267	-380
19,09333	-375
19,10400	-372
19,11467	-368
19,12533	-368
19,13600	-366
19,14667	-363
19,15733	-359
19,16800	-361
19,17867	-364
19,18933	-357
19,20000	-359
19,21067	-354
19,22133	-355
19,23200	-363
19,24267	-360
19,25333	-363
19,26400	-363
19,27467	-361
19,28533	-359
19,29600	-358
19,30667	-344
19,31733	-335
19,32800	-321
19,33867	-306
19,34933	-286
19,36000	-262
19,37067	-236
19,38133	-198
19,39200	-157
19,40267	-119
19,41333	-68
19,42400	-13
19,43467	40
19,44533	100
19,45600	158
19,46667	212
19,47733	265
19,48800	322
19,49867	376
19,50933	421
19,52000	466
19,53067	506
19,54133	547
19,55200	589
19,56267	624
19,57333	661
19,58400	685
19,59467	702
19,60533	705
19,61600	683
19,62667	645
19,63733	591
19,64800	526
19,65867	459
19,66933	393
19,68000	324
19,69067	261
19,70133	208
19,71200	158
19,72267	109
19,73333	65
19,74400	32
19,75467	-1
19,76533	-27
19,77600	-44
19,78667	-64
19,79733	-87
19,80800	-108
19,81867	-114
19,82933	-124
19,84000	-137
19,85067	-145
19,86133	-151
19,87200	-158
19,88267	-163
19,89333	-170
19,90400	-173
19,91467	-180
19,92533	-184
19,93600	-189
19,94667	-192
19,95733	-190
19,96800	-187
19,97867	-183
19,98933	-181
20,00000	-180
20,01067	-177
20,02133	-177
20,03200	-177
20,04267	-173
20,05333	-173
20,06400	-170
20,07467	-159
20,08533	-157
20,09600	-159
20,10667	-154
20,11733	-156
20,12800	-150
20,13867	-154
20,14933	-156
20,16000	-153
20,17067	-148
20,18133	-154
20,19200	-159
20,20267	-163
20,21333	-172
20,22400	-180
20,23467	-182
20,24533	-187
20,25600	-192
20,26667	-195
20,27733	-193
20,28800	-199
20,29867	-202
20,30933	-194
20,32000	-191
20,33067	-191
20,34133	-185
20,35200	-178
20,36267	-166
20,37333	-155
20,38400	-143
20,39467	-127
20,40533	-111
20,41600	-97
20,42667	-81
20,43733	-63
20,44800	-53
20,45867	-37
20,46933	-21
20,48000	-7
20,49067	4
20,50133	16
20,51200	19
20,52267	21
20,53333	12
20,54400	9
20,55467	3
20,56533	-8
20,57600	-15
20,58667	-14
20,59733	-22
20,60800	-28
20,61867	-39
20,62933	-42
20,64000	-38
20,65067	-45
20,66133	-36
20,67200	-35
20,68267	-40
20,69333	-45
20,70400	-47
20,71467	-47
20,72533	-53
20,73600	-49
20,74667	-53
20,75733	-54
20,76800	-57
20,77867	-60
20,78933	-67
20,80000	-69
20,81067	-70
20,82133	-67
20,83200	-67
20,84267	-59
20,85333	-52
20,86400	-41
20,87467	-28
20,88533	-18
20,89600	-2
20,90667	8
20,91733	13
20,92800	19
20,93867	27
20,94933	29
20,96000	20
20,97067	15
20,98133	-1
20,99200	-17
21,00267	-39
21,01333	-58
21,02400	-75
21,03467	-97
21,04533	-117
21,05600	-136
21,06667	-144
21,07733	-155
21,08800	-163
21,09867	-169
21,10933	-173
21,12000	-177
21,13067	-177
21,14133	-178
21,15200	-179
21,16267	-175
21,17333	-178
21,18400	-174
21,19467	-166
21,20533	-158
21,21600	-156
21,22667	-147
21,23733	-137
21,24800	-126
21,25867	-121
21,26933	-113
21,28000	-102
21,29067	-91
21,30133	-84
21,31200	-75
21,32267	-75
21,33333	-69
21,34400	-60
21,35467	-60
21,36533	-65
21,37600	-62
21,38667	-68
21,39733	-72
21,40800	-77
21,41867	-83
21,42933	-88
21,44000	-88
21,45067	-92
21,46133	-97
21,47200	-100
21,48267	-101
21,49333	-105
21,50400	-105
21,51467	-101
21,52533	-102
21,53600	-101
21,54667	-104
21,55733	-104
21,56800	-104
21,57867	-100
21,58933	-97
21,60000	-99
21,61067	-98
21,62133	-96
21,63200	-93
21,64267	-89
21,65333	-85
21,66400	-80
21,67467	-70
21,68533	-63
21,69600	-60
21,70667	-59
21,71733	-57
21,72800	-59
21,73867	-57
21,74933	-58
21,76000	-61
21,77067	-56
21,78133	-59
21,79200	-55
21,80267	-56
21,81333	-54
21,82400	-51
21,83467	-56
21,84533	-56
21,85600	-55
21,86667	-49
21,87733	-49
21,88800	-44
21,89867	-45
21,90933	-36
21,92000	-23
21,93067	-15
21,94133	-9
21,95200	4
21,96267	11
21,97333	15
21,98400	24
21,99467	29
22,00533	37
22,01600	40
22,02667	45
22,03733	46
22,04800	53
22,05867	59
22,06933	62
22,08000	68
22,09067	73
22,10133	78
22,11200	84
22,12267	91
22,13333	96
22,14400	100
22,15467	108
22,16533	107
22,17600	111
22,18667	122
22,19733	123
22,20800	123
22,21867	122
22,22933	119
22,24000	115
22,25067	110
22,26133	106
22,27200	100
22,28267	94
22,29333	90
22,30400	85
22,31467	87
22,32533	85
22,33600	87
22,34667	88
22,35733	100
22,36800	112
22,37867	124
22,38933	131
22,40000	145
22,41067	155
22,42133	172
22,43200	183
22,44267	192
22,45333	195
22,46400	196
22,47467	199
22,48533	187
22,49600	179
22,50667	167
22,51733	145
22,52800	132
22,53867	116
22,54933	94
22,56000	79
22,57067	69
22,58133	55
22,59200	51
22,60267	43
22,61333	41
22,62400	39
22,63467	35
22,64533	31
22,65600	32
22,66667	29
22,67733	23
22,68800	24
22,69867	26
22,70933	27
22,72000	28
22,73067	27
22,74133	26
22,75200	25
22,76267	30
22,77333	32
22,78400	43
22,79467	50
22,80533	53
22,81600	84
22,82667	84
22,83733	89
22,84800	95
22,85867	99
22,86933	107
22,88000	117
22,89067	123
22,90133	128
22,91200	133
22,92267	136
22,93333	135
22,94400	134
22,95467	136
22,96533	130
22,97600	132
22,98667	130
22,99733	127
23,00800	131
23,01867	131
23,02933	143
23,04000	155
23,05067	169
23,06133	177
23,07200	191
23,08267	220
23,09333	227
23,10400	238
23,11467	253
23,12533	269
23,13600	284
23,14667	293
23,15733	310
23,16800	328
23,17867	355
23,18933	377
23,20000	409
23,21067	438
23,22133	469
23,23200	504
23,24267	539
23,25333	568
23,26400	595
23,27467	619
23,28533	642
23,29600	653
23,30667	658
23,31733	643
23,32800	621
23,33867	601
23,34933	579
23,36000	550
23,37067	524
23,38133	508
23,39200	495
23,40267	484
23,41333	469
23,42400	456
23,43467	437
23,44533	424
23,45600	410
23,46667	400
23,47733	389
23,48800	380
23,49867	373
23,50933	365
23,52000	363
23,53067	363
23,54133	359
23,55200	355
23,56267	354
23,57333	355
23,58400	358
23,59467	346
23,60533	343
23,61600	334
23,62667	324
23,63733	322
23,64800	315
23,65867	311
23,66933	299
23,68000	296
23,69067	289
23,70133	284
23,71200	282
23,72267	283
23,73333	280
23,74400	279
23,75467	279
23,76533	276
23,77600	277
23,78667	274
23,79733	273
23,80800	273
23,81867	271
23,82933	268
23,84000	262
23,85067	259
23,86133	252
23,87200	247
23,88267	243
23,89333	232
23,90400	233
23,91467	235
23,92533	229
23,93600	235
23,94667	237
23,95733	235
23,96800	237
23,97867	239
23,98933	241
24,00000	246
24,01067	253
24,02133	261
24,03200	268
24,04267	280
24,05333	292
24,06400	300
24,07467	309
24,08533	324
24,09600	337
24,10667	350
24,11733	361
24,12800	371
24,13867	382
24,14933	391
24,16000	396
24,17067	399
24,18133	396
24,19200	394
24,20267	393
24,21333	392
24,22400	391
24,23467	395
24,24533	391
24,25600	387
24,26667	386
24,27733	383
24,28800	380
24,29867	373
24,30933	367
24,32000	367
24,33067	356
24,34133	352
24,35200	346
24,36267	343
24,37333	340
24,38400	334
24,39467	321
24,40533	321
24,41600	314
24,42667	315
24,43733	313
24,44800	317
24,45867	313
24,46933	315
24,48000	315
24,49067	317
24,50133	322
24,51200	329
24,52267	331
24,53333	328
24,54400	344
24,55467	355
24,56533	361
24,57600	361
24,58667	361
24,59733	373
24,60800	394
24,61867	417
24,62933	438
24,64000	462
24,65067	499
24,66133	533
24,67200	574
24,68267	614
24,69333	648
24,70400	688
24,71467	726
24,72533	761
24,73600	790
24,74667	822
24,75733	838
24,76800	850
24,77867	857
24,78933	843
24,80000	824
24,81067	804
24,82133	776
24,83200	747
24,84267	717
24,85333	693
24,86400	666
24,87467	648
24,88533	628
24,89600	607
24,90667	588
24,91733	579
24,92800	567
24,93867	559
24,94933	559
24,96000	586
24,97067	569
24,98133	578
24,99200	602
25,00267	639
25,01333	700
25,02400	779
25,03467	893
25,04533	1031
25,05600	1189
25,06667	1377
25,07733	1577
25,08800	1788
25,09867	2014
25,10933	2237
25,12000	2445
25,13067	2646
25,14133	2817
25,15200	2954
25,16267	3019
25,17333	3021
25,18400	2938
25,19467	2781
25,20533	2560
25,21600	2297
25,22667	2014
25,23733	1741
25,24800	1496
25,25867	1291
25,26933	1116
25,28000	982
25,29067	874
25,30133	790
25,31200	726
25,32267	672
25,33333	627
25,34400	594
25,35467	568
25,36533	548
25,37600	530
25,38667	515
25,39733	503
25,40800	497
25,41867	488
25,42933	483
25,44000	487
25,45067	486
25,46133	478
25,47200	481
25,48267	477
25,49333	483
25,50400	486
25,51467	485
25,52533	490
25,53600	493
25,54667	501
25,55733	504
25,56800	513
25,57867	522
25,58933	536
25,60000	550
25,61067	562
25,62133	574
25,63200	592
25,64267	610
25,65333	629
25,66400	661
25,67467	686
25,68533	711
25,69600	730
25,70667	751
25,71733	769
25,72800	785
25,73867	792
25,74933	792
25,76000	783
25,77067	770
25,78133	756
25,79200	737
25,80267	714
25,81333	699
25,82400	681
25,83467	671
25,84533	655
25,85600	648
25,86667	641
25,87733	637
25,88800	631
25,89867	630
25,90933	632
25,92000	625
25,93067	622
25,94133	620
25,95200	621
25,96267	625
25,97333	626
25,98400	624
25,99467	617
26,00533	618
26,01600	617
26,02667	618
26,03733	618
26,04800	616
26,05867	612
26,06933	608
26,08000	601
26,09067	594
26,10133	592
26,11200	587
26,12267	578
26,13333	576
26,14400	575
26,15467	574
26,16533	576
26,17600	576
26,18667	575
26,19733	576
26,20800	575
26,21867	579
26,22933	582
26,24000	589
26,25067	597
26,26133	594
26,27200	599
26,28267	603
26,29333	617
26,30400	636
26,31467	648
26,32533	667
26,33600	693
26,34667	720
26,35733	754
26,36800	784
26,37867	827
26,38933	865
26,40000	906
26,41067	949
26,42133	991
26,43200	1027
26,44267	1062
26,45333	1095
26,46400	1126
26,47467	1153
26,48533	1171
26,49600	1177
26,50667	1173
26,51733	1155
26,52800	1127
26,53867	1089
26,54933	1052
26,56000	1016
26,57067	987
26,58133	955
26,59200	930
26,60267	909
26,61333	895
26,62400	879
26,63467	866
26,64533	859
26,65600	842
26,66667	839
26,67733	834
26,68800	828
26,69867	818
26,70933	820
26,72000	821
26,73067	823
26,74133	815
26,75200	823
26,76267	821
26,77333	824
26,78400	822
26,79467	826
26,80533	829
26,81600	833
26,82667	837
26,83733	840
26,84800	839
26,85867	841
26,86933	846
26,88000	850
26,89067	849
26,90133	848
26,91200	846
26,92267	848
26,93333	851
26,94400	853
26,95467	851
26,96533	844
26,97600	845
26,98667	841
26,99733	844
27,00800	846
27,01867	845
27,02933	842
27,04000	841
27,05067	842
27,06133	843
27,07200	837
27,08267	835
27,09333	827
27,10400	826
27,11467	822
27,12533	821
27,13600	823
27,14667	816
27,15733	813
27,16800	814
27,17867	815
27,18933	817
27,20000	821
27,21067	820
27,22133	825
27,23200	827
27,24267	832
27,25333	831
27,26400	833
27,27467	835
27,28533	839
27,29600	836
27,30667	839
27,31733	836
27,32800	840
27,33867	841
27,34933	841
27,36000	841
27,37067	842
27,38133	843
27,39200	842
27,40267	837
27,41333	834
27,42400	837
27,43467	841
27,44533	845
27,45600	845
27,46667	844
27,47733	847
27,48800	849
27,49867	847
27,50933	847
27,52000	853
27,53067	853
27,54133	851
27,55200	853
27,56267	855
27,57333	859
27,58400	854
27,59467	863
27,60533	863
27,61600	866
27,62667	873
27,63733	871
27,64800	881
27,65867	885
27,66933	890
27,68000	893
27,69067	907
27,70133	912
27,71200	921
27,72267	929
27,73333	944
27,74400	959
27,75467	978
27,76533	998
27,77600	1021
27,78667	1049
27,79733	1072
27,80800	1093
27,81867	1127
27,82933	1157
27,84000	1185
27,85067	1209
27,86133	1234
27,87200	1253
27,88267	1275
27,89333	1289
27,90400	1301
27,91467	1310
27,92533	1313
27,93600	1309
27,94667	1286
27,95733	1267
27,96800	1244
27,97867	1229
27,98933	1214
28,00000	1197
28,01067	1193
28,02133	1192
28,03200	1189
28,04267	1191
28,05333	1189
28,06400	1189
28,07467	1192
28,08533	1194
28,09600	1195
28,10667	1200
28,11733	1199
28,12800	1201
28,13867	1202
28,14933	1199
28,16000	1209
28,17067	1210
28,18133	1203
28,19200	1200
28,20267	1195
28,21333	1189
28,22400	1185
28,23467	1170
28,24533	1159
28,25600	1146
28,26667	1135
28,27733	1119
28,28800	1106
28,29867	1102
28,30933	1097
28,32000	1084
28,33067	1078
28,34133	1077
28,35200	1073
28,36267	1068
28,37333	1061
28,38400	1054
28,39467	1056
28,40533	1057
28,41600	1053
28,42667	1048
28,43733	1053
28,44800	1056
28,45867	1052
28,46933	1043
28,48000	1045
28,49067	1076
28,50133	1651
28,51200	1595
28,52267	1243
28,53333	1119
28,54400	1070
28,55467	1049
28,56533	1044
28,57600	1048
28,58667	1047
28,59733	1044
28,60800	1038
28,61867	1040
28,62933	1048
28,64000	1049
28,65067	1038
28,66133	1038
28,67200	1042
28,68267	1045
28,69333	1047
28,70400	1040
28,71467	1047
28,72533	1048
28,73600	1044
28,74667	1039
28,75733	1036
28,76800	1041
28,77867	1044
28,78933	1038
28,80000	1038
28,81067	1043
28,82133	1045
28,83200	1043
28,84267	1044
28,85333	1046
28,86400	1055
28,87467	1051
28,88533	1044
28,89600	1045
28,90667	1047
28,91733	1048
28,92800	1054
28,93867	1054
28,94933	1063
28,96000	1066
28,97067	1060
28,98133	1061
28,99200	1054
29,00267	1066
29,01333	1074
29,02400	1067
29,03467	1067
29,04533	1076
29,05600	1077
29,06667	1076
29,07733	1076
29,08800	1081
29,09867	1079
29,10933	1085
29,12000	1079
29,13067	1082
29,14133	1091
29,15200	1087
29,16267	1086
29,17333	1087
29,18400	1087
29,19467	1095
29,20533	1099
29,21600	1099
29,22667	1098
29,23733	1100
29,24800	1101
29,25867	1104
29,26933	1103
29,28000	1102
29,29067	1102
29,30133	1104
29,31200	1109
29,32267	1110
29,33333	1109
29,34400	1106
29,35467	1109
29,36533	1110
29,37600	1114
29,38667	1114
29,39733	1113
29,40800	1117
29,41867	1126
29,42933	1126
29,44000	1120
29,45067	1149
29,46133	1136
29,47200	1135
29,48267	1140
29,49333	1138
29,50400	1133
29,51467	1144
29,52533	1142
29,53600	1147
29,54667	1146
29,55733	1148
29,56800	1148
29,57867	1147
29,58933	1152
29,60000	1154
29,61067	1161
29,62133	1163
29,63200	1163
29,64267	1164
29,65333	1165
29,66400	1169
29,67467	1174
29,68533	1176
29,69600	1185
29,70667	1193
29,71733	1205
29,72800	1226
29,73867	1250
29,74933	1286
29,76000	1328
29,77067	1379
29,78133	1436
29,79200	1496
29,80267	1568
29,81333	1649
29,82400	1723
29,83467	1804
29,84533	1880
29,85600	1947
29,86667	2004
29,87733	2062
29,88800	2109
29,89867	2140
29,90933	2150
29,92000	2144
29,93067	2112
29,94133	2061
29,95200	1999
29,96267	1925
29,97333	1850
29,98400	1780
29,99467	1717
30,00533	1660
30,01600	1612
30,02667	1581
30,03733	1547
30,04800	1530
30,05867	1514
30,06933	1498
30,08000	1487
30,09067	1476
30,10133	1471
30,11200	1475
30,12267	1466
30,13333	1457
30,14400	1446
30,15467	1445
30,16533	1444
30,17600	1445
30,18667	1438
30,19733	1437
30,20800	1433
30,21867	1425
30,22933	1421
30,24000	1424
30,25067	1421
30,26133	1417
30,27200	1410
30,28267	1407
30,29333	1407
30,30400	1408
30,31467	1411
30,32533	1412
30,33600	1414
30,34667	1407
30,35733	1405
30,36800	1416
30,37867	1481
30,38933	1451
30,40000	1428
30,41067	1421
30,42133	1422
30,43200	1425
30,44267	1428
30,45333	1429
30,46400	1432
30,47467	1436
30,48533	1440
30,49600	1444
30,50667	1448
30,51733	1451
30,52800	1459
30,53867	1466
30,54933	1471
30,56000	1484
30,57067	1490
30,58133	1499
30,59200	1509
30,60267	1516
30,61333	1522
30,62400	1530
30,63467	1536
30,64533	1549
30,65600	1554
30,66667	1560
30,67733	1569
30,68800	1567
30,69867	1568
30,70933	1566
30,72000	1565
30,73067	1570
30,74133	1565
30,75200	1568
30,76267	1562
30,77333	1561
30,78400	1563
30,79467	1562
30,80533	1559
30,81600	1560
30,82667	1556
30,83733	1561
30,84800	1566
30,85867	1570
30,86933	1572
30,88000	1579
30,89067	1580
30,90133	1583
30,91200	1593
30,92267	1598
30,93333	1601
30,94400	1607
30,95467	1614
30,96533	1620
30,97600	1616
30,98667	1621
30,99733	1617
31,00800	1619
31,01867	1623
31,02933	1629
31,04000	1629
31,05067	1629
31,06133	1628
31,07200	1630
31,08267	1628
31,09333	1625
31,10400	1627
31,11467	1621
31,12533	1620
31,13600	1619
31,14667	1619
31,15733	1618
31,16800	1615
31,17867	1616
31,18933	1619
31,20000	1623
31,21067	1623
31,22133	1626
31,23200	1623
31,24267	1625
31,25333	1619
31,26400	1622
31,27467	1622
31,28533	1621
31,29600	1621
31,30667	1622
31,31733	1610
31,32800	1610
31,33867	1607
31,34933	1597
31,36000	1589
31,37067	1583
31,38133	1584
31,39200	1572
31,40267	1567
31,41333	1560
31,42400	1557
31,43467	1553
31,44533	1544
31,45600	1545
31,46667	1544
31,47733	1548
31,48800	1546
31,49867	1551
31,50933	1554
31,52000	1559
31,53067	1559
31,54133	1556
31,55200	1556
31,56267	1554
31,57333	1558
31,58400	1561
31,59467	1558
31,60533	1555
31,61600	1550
31,62667	1554
31,63733	1554
31,64800	1552
31,65867	1559
31,66933	1562
31,68000	1560
31,69067	1561
31,70133	1565
31,71200	1564
31,72267	1566
31,73333	1568
31,74400	1566
31,75467	1575
31,76533	1573
31,77600	1578
31,78667	1575
31,79733	1579
31,80800	1580
31,81867	1580
31,82933	1579
31,84000	1581
31,85067	1582
31,86133	1577
31,87200	1578
31,88267	1582
31,89333	1583
31,90400	1590
31,91467	1582
31,92533	1587
31,93600	1589
31,94667	1591
31,95733	1592
31,96800	1591
31,97867	1587
31,98933	1586
32,00000	1592
32,01067	1590
32,02133	1594
32,03200	1595
32,04267	1599
32,05333	1602
32,06400	1606
32,07467	1600
32,08533	1609
32,09600	1606
32,10667	1615
32,11733	1622
32,12800	1623
32,13867	1630
32,14933	1633
32,16000	1639
32,17067	1642
32,18133	1653
32,19200	1656
32,20267	1653
32,21333	1661
32,22400	1662
32,23467	1666
32,24533	1664
32,25600	1667
32,26667	1660
32,27733	1663
32,28800	1663
32,29867	1657
32,30933	1654
32,32000	1654
32,33067	1653
32,34133	1646
32,35200	1643
32,36267	1638
32,37333	1641
32,38400	1637
32,39467	1636
32,40533	1635
32,41600	1633
32,42667	1633
32,43733	1633
32,44800	1634
32,45867	1631
32,46933	1636
32,48000	1630
32,49067	1632
32,50133	1631
32,51200	1635
32,52267	1636
32,53333	1640
32,54400	1638
32,55467	1642
32,56533	1644
32,57600	1640
32,58667	1648
32,59733	1646
32,60800	1649
32,61867	1647
32,62933	1647
32,64000	1645
32,65067	1653
32,66133	1648
32,67200	1652
32,68267	1650
32,69333	1647
32,70400	1650
32,71467	1650
32,72533	1645
32,73600	1651
32,74667	1648
32,75733	1647
32,76800	1651
32,77867	1649
32,78933	1647
32,80000	1650
32,81067	1651
32,82133	1647
32,83200	1652
32,84267	1653
32,85333	1651
32,86400	1654
32,87467	1654
32,88533	1651
32,89600	1649
32,90667	1648
32,91733	1654
32,92800	1654
32,93867	1652
32,94933	1651
32,96000	1654
32,97067	1653
32,98133	1651
32,99200	1652
33,00267	1661
33,01333	1658
33,02400	1656
33,03467	1655
33,04533	1655
33,05600	1657
33,06667	1661
33,07733	1658
33,08800	1665
33,09867	1662
33,10933	1657
33,12000	1664
33,13067	1661
33,14133	1665
33,15200	1662
33,16267	1660
33,17333	1664
33,18400	1665
33,19467	1660
33,20533	1667
33,21600	1669
33,22667	1672
33,23733	1669
33,24800	1669
33,25867	1671
33,26933	1675
33,28000	1672
33,29067	1670
33,30133	1670
33,31200	1674
33,32267	1678
33,33333	1676
33,34400	1675
33,35467	1679
33,36533	1681
33,37600	1679
33,38667	1679
33,39733	1683
33,40800	1686
33,41867	1684
33,42933	1687
33,44000	1690
33,45067	1690
33,46133	1683
33,47200	1687
33,48267	1691
33,49333	1689
33,50400	1688
33,51467	1694
33,52533	1693
33,53600	1697
33,54667	1699
33,55733	1696
33,56800	1698
33,57867	1692
33,58933	1694
33,60000	1697
33,61067	1700
33,62133	1701
33,63200	1697
33,64267	1696
33,65333	1702
33,66400	1701
33,67467	1707
33,68533	1698
33,69600	1697
33,70667	1700
33,71733	1704
33,72800	1705
33,73867	1708
33,74933	1706
33,76000	1714
33,77067	1713
33,78133	1715
33,79200	1717
33,80267	1719
33,81333	1722
33,82400	1720
33,83467	1721
33,84533	1726
33,85600	1730
33,86667	1731
33,87733	1737
33,88800	1732
33,89867	1733
33,90933	1733
33,92000	1731
33,93067	1732
33,94133	1735
33,95200	1739
33,96267	1730
33,97333	1723
33,98400	1726
33,99467	1721
34,00533	1721
34,01600	1722
34,02667	1723
34,03733	1720
34,04800	1718
34,05867	1717
34,06933	1720
34,08000	1713
34,09067	1717
34,10133	1720
34,11200	1714
34,12267	1714
34,13333	1713
34,14400	1712
34,15467	1714
34,16533	1716
34,17600	1719
34,18667	1718
34,19733	1714
34,20800	1713
34,21867	1719
34,22933	1719
34,24000	1722
34,25067	1719
34,26133	1722
34,27200	1715
34,28267	1723
34,29333	1719
34,30400	1719
34,31467	1721
34,32533	1719
34,33600	1720
34,34667	1722
34,35733	1724
34,36800	1722
34,37867	1718
34,38933	1720
34,40000	1719
34,41067	1719
34,42133	1715
34,43200	1716
34,44267	1720
34,45333	1724
34,46400	1724
34,47467	1724
34,48533	1721
34,49600	1724
34,50667	1721
34,51733	1725
34,52800	1725
34,53867	1722
34,54933	1720
34,56000	1720
34,57067	1722
34,58133	1725
34,59200	1725
34,60267	1732
34,61333	1735
34,62400	1730
34,63467	1731
34,64533	1738
34,65600	1737
34,66667	1734
34,67733	1735
34,68800	1733
34,69867	1738
34,70933	1735
34,72000	1738
34,73067	1743
34,74133	1744
34,75200	1748
34,76267	1743
34,77333	1748
34,78400	1749
34,79467	1751
34,80533	1748
34,81600	1751
34,82667	1747
34,83733	1750
34,84800	1750
34,85867	1756
34,86933	1758
34,88000	1757
34,89067	1751
34,90133	1752
34,91200	1749
34,92267	1752
34,93333	1756
34,94400	1759
34,95467	1752
34,96533	1754
34,97600	1748
34,98667	1751
34,99733	1757
35,00800	1755
35,01867	1750
35,02933	1756
35,04000	1751
35,05067	1751
35,06133	1751
35,07200	1754
35,08267	1752
35,09333	1755
35,10400	1759
35,11467	1754
35,12533	1749
35,13600	1750
35,14667	1748
35,15733	1756
35,16800	1759
35,17867	1759
35,18933	1760
35,20000	1755
35,21067	1759
35,22133	1760
35,23200	1761
35,24267	1764
35,25333	1764
35,26400	1764
35,27467	1769
35,28533	1770
35,29600	1768
35,30667	1765
35,31733	1768
35,32800	1763
35,33867	1764
35,34933	1762
35,36000	1761
35,37067	1764
35,38133	1761
35,39200	1763
35,40267	1763
35,41333	1766
35,42400	1762
35,43467	1764
35,44533	1768
35,45600	1768
35,46667	1770
35,47733	1769
35,48800	1766
35,49867	1768
35,50933	1772
35,52000	1777
35,53067	1781
35,54133	1781
35,55200	1778
35,56267	1780
35,57333	1782
35,58400	1784
35,59467	1785
35,60533	1783
35,61600	1787
35,62667	1785
35,63733	1787
35,64800	1792
35,65867	1793
35,66933	1793
35,68000	1791
35,69067	1787
35,70133	1782
35,71200	1787
35,72267	1778
35,73333	1781
35,74400	1785
35,75467	1779
35,76533	1779
35,77600	1782
35,78667	1778
35,79733	1783
35,80800	1782
35,81867	1782
35,82933	1781
35,84000	1781
35,85067	1780
35,86133	1778
35,87200	1779
35,88267	1781
35,89333	1780
35,90400	1779
35,91467	1785
35,92533	1786
35,93600	1778
35,94667	1780
35,95733	1782
35,96800	1783
35,97867	1781
35,98933	1781
36,00000	1782
36,01067	1783
36,02133	1786


