[Header]
Application Name	LabSolutions
Version	5.71
Data File Name	C:\LabSolutions\Data\Project1\Daniel Moreira\COMPOUND1\2025.07.03_compound1_6_006.lcd
Output Date	02/01/2013
Output Time	20:59:08

[File Information]
Type	Data File
Generated	02/01/2013 17:49:38
Generated by	System Administrator
Modified	02/01/2013 18:26:06
Modified by	System Administrator

[Sample Information]
Operator Name	System Administrator
Acquired	02/01/2013 17:50:03
Sample Type	0:Unknown
Level	0
Sample Name	Compound1-Std
Sample ID	Compound1-Std-1-2
ISTD Amount1	1
ISTD Amount2	1
ISTD Amount3	1
ISTD Amount4	1
ISTD Amount5	1
ISTD Amount6	1
ISTD Amount7	1
ISTD Amount8	1
ISTD Amount9	1
ISTD Amount10	1
ISTD Amount11	1
ISTD Amount12	1
ISTD Amount13	1
ISTD Amount14	1
ISTD Amount15	1
ISTD Amount16	1
ISTD Amount17	1
ISTD Amount18	1
ISTD Amount19	1
ISTD Amount20	1
ISTD Amount21	1
ISTD Amount22	1
ISTD Amount23	1
ISTD Amount24	1
ISTD Amount25	1
ISTD Amount26	1
ISTD Amount27	1
ISTD Amount28	1
ISTD Amount29	1
ISTD Amount30	1
ISTD Amount31	1
ISTD Amount32	1
Sample Amount	1
Dilution Factor	1
Vial#	65
Injection Volume	25

[Original Files]
Data File	C:\LabSolutions\Data\Project1\Daniel Moreira\COMPOUND1\2025.07.03_compound1_6_006.lcd
Method File	C:\LabSolutions\Data\Project1\Daniel Moreira\COMPOUND1.lcm
Batch File	C:\LabSolutions\Data\Project1\Daniel Moreira\COMPOUND1\2025.07.03_compound1.lcb
Report Format File	C:\LabSolutions\System\DEFAULT.lsr

[File Description]


[Configuration]
Instrument Name	HPLC-PC-Instrument
Instrument #	2
Line #	1
# of Detectors	1
Detector ID	PDA
Detector Name	PDA
# of Channels	1

[Peak Table(PDA-Ch2)]
# of Peaks	17
Peak#	R.Time	I.Time	F.Time	Area	Height	A/H	Conc.	Mark	ID#	Name	k'	Plate #	Plate Ht.	Tailing	Resolution	Sep.Factor	Area Ratio	Height Ratio	Conc. %	Norm Conc.
1	0,729	0,107	1,280	116911	25615	4,564	0,000	   			0,000	20	7445,152	0,873	0,000	0,000	0	0	0,000	0,000
2	2,763	2,069	2,923	4320	130	33,202	0,000	   			2,791	231	649,505	0,605	2,955	0,000	0	0	0,000	0,000
3	3,157	2,923	3,232	1438	115	12,464	0,000	   			3,333	1988	75,470	0,000	0,781	1,194	0	0	0,000	0,000
4	3,351	3,232	3,595	6723	706	9,524	0,000	 V 			3,598	2559	58,624	0,000	0,705	1,080	0	0	0,000	0,000
5	13,398	13,269	13,589	2488	373	6,678	0,000	   			17,387	74921	2,002	1,092	43,616	4,832	0	0	0,000	0,000
6	14,507	14,336	14,688	2568	178	14,451	0,000	   			18,908	16152	9,287	0,000	3,397	1,087	0	0	0,000	0,000
7	14,941	14,688	15,051	103532	14443	7,168	0,000	 V 			19,504	86855	1,727	0,000	1,316	1,031	0	0	0,000	0,000
8	15,225	15,051	16,971	2484991	309475	8,030	0,000	SV 			19,894	81991	1,829	1,283	1,369	1,020	0	0	0,000	0,000
9	15,553	15,477	15,648	12038	2332	5,162	0,000	T  			20,344	154196	0,973	0,000	1,770	1,023	0	0	0,000	0,000
10	15,722	15,648	15,787	6047	966	6,261	0,000	TV 			20,576	69617	2,155	0,000	0,851	1,011	0	0	0,000	0,000
11	15,883	15,787	16,160	39936	4323	9,239	0,000	TV 			20,797	68217	2,199	0,000	0,669	1,011	0	0	0,000	0,000
12	16,335	16,224	16,523	33054	4934	6,699	0,000	T  			21,417	108712	1,380	1,218	2,045	1,030	0	0	0,000	0,000
13	16,702	16,629	16,832	1439	251	5,743	0,000	T  			21,921	148765	1,008	1,300	1,981	1,024	0	0	0,000	0,000
14	19,362	19,072	19,755	13904	862	16,130	0,000	   			25,571	33650	4,458	1,131	8,933	1,166	0	0	0,000	0,000
15	26,234	25,995	26,475	4824	415	11,635	0,000	   			35,002	106867	1,404	1,075	18,493	1,369	0	0	0,000	0,000
16	27,611	27,403	27,787	2674	257	10,425	0,000	   			36,891	150538	0,996	0,979	4,545	1,054	0	0	0,000	0,000
17	29,593	29,344	29,899	8811	753	11,699	0,000	   			39,611	148137	1,013	1,220	6,695	1,074	0	0	0,000	0,000

[Compound Results(PDA)]
# of IDs	0

[PDA Multi Chromatogram(Ch2)]
# of Points	      3378
Interval(msec)	640
Start Time(min)	0
End Time(min)	36,0213
Intensity Units	mAU
Intensity Multiplier	1
Type	MultiChrom
Wavelength(nm)	280
Bandwidth(nm)	4
R.Time (min)	Intensity
0,00000	0
0,01067	0
0,02133	0
0,03200	0
0,04267	0
0,05333	0
0,06400	0
0,07467	0
0,08533	0
0,09600	0
0,10667	0
0,11733	12
0,12800	28
0,13867	46
0,14933	59
0,16000	74
0,17067	90
0,18133	102
0,19200	119
0,20267	134
0,21333	147
0,22400	158
0,23467	176
0,24533	187
0,25600	200
0,26667	215
0,27733	232
0,28800	254
0,29867	270
0,30933	283
0,32000	302
0,33067	319
0,34133	333
0,35200	347
0,36267	359
0,37333	368
0,38400	376
0,39467	377
0,40533	386
0,41600	397
0,42667	405
0,43733	416
0,44800	424
0,45867	432
0,46933	442
0,48000	456
0,49067	456
0,50133	476
0,51200	491
0,52267	506
0,53333	517
0,54400	531
0,55467	548
0,56533	560
0,57600	567
0,58667	582
0,59733	601
0,60800	622
0,61867	645
0,62933	667
0,64000	693
0,65067	720
0,66133	751
0,67200	793
0,68267	840
0,69333	916
0,70400	1033
0,71467	1535
0,72533	24294
0,73600	19094
0,74667	9099
0,75733	8049
0,76800	6866
0,77867	5249
0,78933	3913
0,80000	2909
0,81067	2165
0,82133	1624
0,83200	1208
0,84267	876
0,85333	581
0,86400	336
0,87467	113
0,88533	-92
0,89600	-277
0,90667	-448
0,91733	-597
0,92800	-732
0,93867	-861
0,94933	-979
0,96000	-1053
0,97067	-1171
0,98133	-1271
0,99200	-1358
1,00267	-1441
1,01333	-1517
1,02400	-1584
1,03467	-1655
1,04533	-1714
1,05600	-1771
1,06667	-1828
1,07733	-1880
1,08800	-1923
1,09867	-1961
1,10933	-2007
1,12000	-2050
1,13067	-2092
1,14133	-2131
1,15200	-2151
1,16267	-2192
1,17333	-2229
1,18400	-2262
1,19467	-2290
1,20533	-2320
1,21600	-2340
1,22667	-2367
1,23733	-2398
1,24800	-2422
1,25867	-2447
1,26933	-2469
1,28000	-2493
1,29067	-2512
1,30133	-2529
1,31200	-2559
1,32267	-2578
1,33333	-2604
1,34400	-2624
1,35467	-2638
1,36533	-2656
1,37600	-2678
1,38667	-2693
1,39733	-2713
1,40800	-2728
1,41867	-2742
1,42933	-2756
1,44000	-2767
1,45067	-2780
1,46133	-2800
1,47200	-2810
1,48267	-2819
1,49333	-2831
1,50400	-2844
1,51467	-2849
1,52533	-2857
1,53600	-2862
1,54667	-2876
1,55733	-2877
1,56800	-2884
1,57867	-2893
1,58933	-2893
1,60000	-2902
1,61067	-2910
1,62133	-2911
1,63200	-2911
1,64267	-2912
1,65333	-2915
1,66400	-2915
1,67467	-2915
1,68533	-2913
1,69600	-2911
1,70667	-2909
1,71733	-2910
1,72800	-2911
1,73867	-2905
1,74933	-2909
1,76000	-2907
1,77067	-2903
1,78133	-2899
1,79200	-2892
1,80267	-2891
1,81333	-2886
1,82400	-2880
1,83467	-2877
1,84533	-2874
1,85600	-2869
1,86667	-2863
1,87733	-2860
1,88800	-2855
1,89867	-2852
1,90933	-2847
1,92000	-2840
1,93067	-2829
1,94133	-2823
1,95200	-2822
1,96267	-2818
1,97333	-2812
1,98400	-2800
1,99467	-2793
2,00533	-2787
2,01600	-2783
2,02667	-2773
2,03733	-2768
2,04800	-2757
2,05867	-2751
2,06933	-2743
2,08000	-2734
2,09067	-2727
2,10133	-2720
2,11200	-2717
2,12267	-2707
2,13333	-2692
2,14400	-2684
2,15467	-2674
2,16533	-2665
2,17600	-2654
2,18667	-2652
2,19733	-2638
2,20800	-2631
2,21867	-2626
2,22933	-2612
2,24000	-2605
2,25067	-2601
2,26133	-2590
2,27200	-2585
2,28267	-2574
2,29333	-2568
2,30400	-2553
2,31467	-2543
2,32533	-2533
2,33600	-2520
2,34667	-2514
2,35733	-2500
2,36800	-2494
2,37867	-2487
2,38933	-2476
2,40000	-2471
2,41067	-2468
2,42133	-2457
2,43200	-2446
2,44267	-2435
2,45333	-2433
2,46400	-2418
2,47467	-2406
2,48533	-2399
2,49600	-2388
2,50667	-2384
2,51733	-2377
2,52800	-2370
2,53867	-2359
2,54933	-2348
2,56000	-2338
2,57067	-2338
2,58133	-2323
2,59200	-2313
2,60267	-2309
2,61333	-2302
2,62400	-2287
2,63467	-2286
2,64533	-2282
2,65600	-2275
2,66667	-2268
2,67733	-2262
2,68800	-2258
2,69867	-2250
2,70933	-2246
2,72000	-2245
2,73067	-2233
2,74133	-2232
2,75200	-2235
2,76267	-2226
2,77333	-2220
2,78400	-2219
2,79467	-2214
2,80533	-2217
2,81600	-2225
2,82667	-2232
2,83733	-2238
2,84800	-2247
2,85867	-2257
2,86933	-2268
2,88000	-2268
2,89067	-2275
2,90133	-2274
2,91200	-2274
2,92267	-2267
2,93333	-2252
2,94400	-2242
2,95467	-2226
2,96533	-2204
2,97600	-2184
2,98667	-2169
2,99733	-2150
3,00800	-2131
3,01867	-2117
3,02933	-2112
3,04000	-2101
3,05067	-2094
3,06133	-2092
3,07200	-2096
3,08267	-2097
3,09333	-2084
3,10400	-2077
3,11467	-2064
3,12533	-2044
3,13600	-2025
3,14667	-2013
3,15733	-1997
3,16800	-1994
3,17867	-1989
3,18933	-1992
3,20000	-1991
3,21067	-2001
3,22133	-2003
3,23200	-2001
3,24267	-1980
3,25333	-1951
3,26400	-1899
3,27467	-1827
3,28533	-1733
3,29600	-1621
3,30667	-1510
3,31733	-1410
3,32800	-1336
3,33867	-1292
3,34933	-1280
3,36000	-1287
3,37067	-1315
3,38133	-1355
3,39200	-1394
3,40267	-1440
3,41333	-1490
3,42400	-1533
3,43467	-1577
3,44533	-1614
3,45600	-1647
3,46667	-1676
3,47733	-1706
3,48800	-1737
3,49867	-1754
3,50933	-1769
3,52000	-1782
3,53067	-1795
3,54133	-1802
3,55200	-1807
3,56267	-1814
3,57333	-1816
3,58400	-1821
3,59467	-1825
3,60533	-1822
3,61600	-1816
3,62667	-1812
3,63733	-1810
3,64800	-1805
3,65867	-1799
3,66933	-1795
3,68000	-1786
3,69067	-1784
3,70133	-1775
3,71200	-1773
3,72267	-1769
3,73333	-1761
3,74400	-1750
3,75467	-1749
3,76533	-1745
3,77600	-1742
3,78667	-1743
3,79733	-1732
3,80800	-1726
3,81867	-1723
3,82933	-1720
3,84000	-1716
3,85067	-1716
3,86133	-1714
3,87200	-1703
3,88267	-1700
3,89333	-1698
3,90400	-1698
3,91467	-1695
3,92533	-1690
3,93600	-1681
3,94667	-1674
3,95733	-1670
3,96800	-1668
3,97867	-1662
3,98933	-1659
4,00000	-1655
4,01067	-1653
4,02133	-1652
4,03200	-1649
4,04267	-1652
4,05333	-1652
4,06400	-1647
4,07467	-1648
4,08533	-1645
4,09600	-1639
4,10667	-1636
4,11733	-1632
4,12800	-1632
4,13867	-1631
4,14933	-1629
4,16000	-1628
4,17067	-1625
4,18133	-1625
4,19200	-1623
4,20267	-1624
4,21333	-1619
4,22400	-1615
4,23467	-1608
4,24533	-1610
4,25600	-1611
4,26667	-1612
4,27733	-1606
4,28800	-1601
4,29867	-1602
4,30933	-1600
4,32000	-1603
4,33067	-1593
4,34133	-1595
4,35200	-1593
4,36267	-1590
4,37333	-1590
4,38400	-1592
4,39467	-1589
4,40533	-1590
4,41600	-1588
4,42667	-1587
4,43733	-1578
4,44800	-1577
4,45867	-1584
4,46933	-1580
4,48000	-1578
4,49067	-1577
4,50133	-1574
4,51200	-1576
4,52267	-1578
4,53333	-1576
4,54400	-1573
4,55467	-1574
4,56533	-1577
4,57600	-1568
4,58667	-1569
4,59733	-1571
4,60800	-1569
4,61867	-1570
4,62933	-1567
4,64000	-1567
4,65067	-1567
4,66133	-1566
4,67200	-1566
4,68267	-1565
4,69333	-1567
4,70400	-1567
4,71467	-1572
4,72533	-1572
4,73600	-1568
4,74667	-1566
4,75733	-1567
4,76800	-1565
4,77867	-1569
4,78933	-1567
4,80000	-1567
4,81067	-1568
4,82133	-1561
4,83200	-1561
4,84267	-1561
4,85333	-1562
4,86400	-1563
4,87467	-1563
4,88533	-1563
4,89600	-1565
4,90667	-1564
4,91733	-1565
4,92800	-1566
4,93867	-1559
4,94933	-1566
4,96000	-1568
4,97067	-1567
4,98133	-1567
4,99200	-1564
5,00267	-1557
5,01333	-1561
5,02400	-1560
5,03467	-1562
5,04533	-1558
5,05600	-1561
5,06667	-1566
5,07733	-1565
5,08800	-1565
5,09867	-1562
5,10933	-1560
5,12000	-1563
5,13067	-1564
5,14133	-1563
5,15200	-1566
5,16267	-1566
5,17333	-1560
5,18400	-1563
5,19467	-1561
5,20533	-1561
5,21600	-1558
5,22667	-1559
5,23733	-1558
5,24800	-1559
5,25867	-1559
5,26933	-1564
5,28000	-1564
5,29067	-1562
5,30133	-1561
5,31200	-1559
5,32267	-1557
5,33333	-1562
5,34400	-1565
5,35467	-1562
5,36533	-1562
5,37600	-1554
5,38667	-1560
5,39733	-1557
5,40800	-1558
5,41867	-1563
5,42933	-1559
5,44000	-1554
5,45067	-1555
5,46133	-1552
5,47200	-1557
5,48267	-1562
5,49333	-1563
5,50400	-1562
5,51467	-1560
5,52533	-1560
5,53600	-1557
5,54667	-1557
5,55733	-1564
5,56800	-1564
5,57867	-1560
5,58933	-1563
5,60000	-1561
5,61067	-1559
5,62133	-1561
5,63200	-1558
5,64267	-1562
5,65333	-1563
5,66400	-1562
5,67467	-1566
5,68533	-1562
5,69600	-1565
5,70667	-1565
5,71733	-1566
5,72800	-1561
5,73867	-1563
5,74933	-1563
5,76000	-1562
5,77067	-1563
5,78133	-1560
5,79200	-1558
5,80267	-1561
5,81333	-1554
5,82400	-1556
5,83467	-1555
5,84533	-1555
5,85600	-1556
5,86667	-1551
5,87733	-1554
5,88800	-1557
5,89867	-1556
5,90933	-1551
5,92000	-1558
5,93067	-1560
5,94133	-1556
5,95200	-1553
5,96267	-1555
5,97333	-1553
5,98400	-1551
5,99467	-1544
6,00533	-1545
6,01600	-1548
6,02667	-1549
6,03733	-1550
6,04800	-1548
6,05867	-1548
6,06933	-1542
6,08000	-1543
6,09067	-1550
6,10133	-1550
6,11200	-1548
6,12267	-1549
6,13333	-1547
6,14400	-1551
6,15467	-1548
6,16533	-1548
6,17600	-1552
6,18667	-1551
6,19733	-1553
6,20800	-1556
6,21867	-1553
6,22933	-1553
6,24000	-1556
6,25067	-1560
6,26133	-1553
6,27200	-1551
6,28267	-1550
6,29333	-1556
6,30400	-1555
6,31467	-1554
6,32533	-1554
6,33600	-1556
6,34667	-1555
6,35733	-1554
6,36800	-1559
6,37867	-1561
6,38933	-1560
6,40000	-1556
6,41067	-1553
6,42133	-1558
6,43200	-1558
6,44267	-1561
6,45333	-1567
6,46400	-1559
6,47467	-1561
6,48533	-1559
6,49600	-1564
6,50667	-1559
6,51733	-1557
6,52800	-1557
6,53867	-1559
6,54933	-1564
6,56000	-1562
6,57067	-1558
6,58133	-1553
6,59200	-1558
6,60267	-1561
6,61333	-1560
6,62400	-1558
6,63467	-1560
6,64533	-1563
6,65600	-1561
6,66667	-1563
6,67733	-1560
6,68800	-1558
6,69867	-1559
6,70933	-1559
6,72000	-1558
6,73067	-1564
6,74133	-1563
6,75200	-1559
6,76267	-1564
6,77333	-1565
6,78400	-1564
6,79467	-1565
6,80533	-1559
6,81600	-1560
6,82667	-1562
6,83733	-1563
6,84800	-1562
6,85867	-1559
6,86933	-1559
6,88000	-1560
6,89067	-1556
6,90133	-1554
6,91200	-1559
6,92267	-1558
6,93333	-1552
6,94400	-1553
6,95467	-1551
6,96533	-1555
6,97600	-1559
6,98667	-1558
6,99733	-1558
7,00800	-1562
7,01867	-1560
7,02933	-1557
7,04000	-1555
7,05067	-1560
7,06133	-1556
7,07200	-1553
7,08267	-1553
7,09333	-1553
7,10400	-1556
7,11467	-1557
7,12533	-1558
7,13600	-1551
7,14667	-1548
7,15733	-1551
7,16800	-1550
7,17867	-1549
7,18933	-1551
7,20000	-1549
7,21067	-1543
7,22133	-1542
7,23200	-1542
7,24267	-1544
7,25333	-1544
7,26400	-1541
7,27467	-1542
7,28533	-1545
7,29600	-1541
7,30667	-1540
7,31733	-1535
7,32800	-1535
7,33867	-1539
7,34933	-1541
7,36000	-1536
7,37067	-1533
7,38133	-1534
7,39200	-1536
7,40267	-1539
7,41333	-1531
7,42400	-1531
7,43467	-1533
7,44533	-1530
7,45600	-1530
7,46667	-1528
7,47733	-1525
7,48800	-1523
7,49867	-1522
7,50933	-1520
7,52000	-1520
7,53067	-1520
7,54133	-1520
7,55200	-1517
7,56267	-1517
7,57333	-1511
7,58400	-1511
7,59467	-1511
7,60533	-1509
7,61600	-1511
7,62667	-1508
7,63733	-1509
7,64800	-1508
7,65867	-1505
7,66933	-1505
7,68000	-1502
7,69067	-1498
7,70133	-1502
7,71200	-1497
7,72267	-1492
7,73333	-1487
7,74400	-1488
7,75467	-1490
7,76533	-1489
7,77600	-1480
7,78667	-1484
7,79733	-1482
7,80800	-1475
7,81867	-1475
7,82933	-1477
7,84000	-1475
7,85067	-1477
7,86133	-1472
7,87200	-1472
7,88267	-1469
7,89333	-1470
7,90400	-1468
7,91467	-1464
7,92533	-1465
7,93600	-1462
7,94667	-1455
7,95733	-1452
7,96800	-1453
7,97867	-1452
7,98933	-1444
8,00000	-1445
8,01067	-1439
8,02133	-1438
8,03200	-1440
8,04267	-1440
8,05333	-1439
8,06400	-1430
8,07467	-1432
8,08533	-1437
8,09600	-1438
8,10667	-1427
8,11733	-1428
8,12800	-1424
8,13867	-1420
8,14933	-1428
8,16000	-1429
8,17067	-1427
8,18133	-1425
8,19200	-1419
8,20267	-1417
8,21333	-1415
8,22400	-1416
8,23467	-1412
8,24533	-1411
8,25600	-1411
8,26667	-1409
8,27733	-1407
8,28800	-1400
8,29867	-1408
8,30933	-1410
8,32000	-1412
8,33067	-1406
8,34133	-1409
8,35200	-1409
8,36267	-1413
8,37333	-1409
8,38400	-1409
8,39467	-1409
8,40533	-1404
8,41600	-1406
8,42667	-1403
8,43733	-1403
8,44800	-1397
8,45867	-1394
8,46933	-1400
8,48000	-1408
8,49067	-1403
8,50133	-1404
8,51200	-1403
8,52267	-1402
8,53333	-1400
8,54400	-1402
8,55467	-1406
8,56533	-1404
8,57600	-1407
8,58667	-1404
8,59733	-1410
8,60800	-1408
8,61867	-1405
8,62933	-1409
8,64000	-1413
8,65067	-1411
8,66133	-1412
8,67200	-1411
8,68267	-1416
8,69333	-1415
8,70400	-1412
8,71467	-1416
8,72533	-1420
8,73600	-1418
8,74667	-1423
8,75733	-1426
8,76800	-1427
8,77867	-1428
8,78933	-1429
8,80000	-1430
8,81067	-1430
8,82133	-1435
8,83200	-1438
8,84267	-1441
8,85333	-1440
8,86400	-1443
8,87467	-1449
8,88533	-1451
8,89600	-1447
8,90667	-1457
8,91733	-1454
8,92800	-1456
8,93867	-1461
8,94933	-1462
8,96000	-1460
8,97067	-1464
8,98133	-1462
8,99200	-1468
9,00267	-1470
9,01333	-1469
9,02400	-1471
9,03467	-1474
9,04533	-1473
9,05600	-1474
9,06667	-1483
9,07733	-1486
9,08800	-1492
9,09867	-1494
9,10933	-1493
9,12000	-1495
9,13067	-1494
9,14133	-1496
9,15200	-1500
9,16267	-1499
9,17333	-1502
9,18400	-1507
9,19467	-1511
9,20533	-1511
9,21600	-1515
9,22667	-1512
9,23733	-1517
9,24800	-1522
9,25867	-1525
9,26933	-1527
9,28000	-1531
9,29067	-1534
9,30133	-1533
9,31200	-1531
9,32267	-1537
9,33333	-1537
9,34400	-1541
9,35467	-1547
9,36533	-1547
9,37600	-1549
9,38667	-1552
9,39733	-1558
9,40800	-1557
9,41867	-1557
9,42933	-1555
9,44000	-1560
9,45067	-1565
9,46133	-1563
9,47200	-1560
9,48267	-1568
9,49333	-1573
9,50400	-1577
9,51467	-1580
9,52533	-1586
9,53600	-1586
9,54667	-1584
9,55733	-1587
9,56800	-1590
9,57867	-1590
9,58933	-1593
9,60000	-1600
9,61067	-1601
9,62133	-1604
9,63200	-1600
9,64267	-1597
9,65333	-1602
9,66400	-1602
9,67467	-1606
9,68533	-1612
9,69600	-1614
9,70667	-1617
9,71733	-1614
9,72800	-1616
9,73867	-1614
9,74933	-1621
9,76000	-1619
9,77067	-1632
9,78133	-1628
9,79200	-1626
9,80267	-1630
9,81333	-1636
9,82400	-1635
9,83467	-1634
9,84533	-1636
9,85600	-1635
9,86667	-1639
9,87733	-1638
9,88800	-1637
9,89867	-1633
9,90933	-1623
9,92000	-1626
9,93067	-1619
9,94133	-1615
9,95200	-1610
9,96267	-1602
9,97333	-1601
9,98400	-1605
9,99467	-1614
10,00533	-1621
10,01600	-1623
10,02667	-1628
10,03733	-1630
10,04800	-1635
10,05867	-1633
10,06933	-1639
10,08000	-1643
10,09067	-1640
10,10133	-1642
10,11200	-1646
10,12267	-1640
10,13333	-1636
10,14400	-1630
10,15467	-1621
10,16533	-1611
10,17600	-1596
10,18667	-1594
10,19733	-1595
10,20800	-1593
10,21867	-1602
10,22933	-1622
10,24000	-1642
10,25067	-1657
10,26133	-1676
10,27200	-1690
10,28267	-1697
10,29333	-1706
10,30400	-1716
10,31467	-1722
10,32533	-1729
10,33600	-1730
10,34667	-1734
10,35733	-1739
10,36800	-1742
10,37867	-1747
10,38933	-1748
10,40000	-1744
10,41067	-1750
10,42133	-1750
10,43200	-1751
10,44267	-1758
10,45333	-1757
10,46400	-1763
10,47467	-1765
10,48533	-1765
10,49600	-1765
10,50667	-1770
10,51733	-1771
10,52800	-1776
10,53867	-1780
10,54933	-1784
10,56000	-1782
10,57067	-1781
10,58133	-1783
10,59200	-1783
10,60267	-1784
10,61333	-1785
10,62400	-1783
10,63467	-1785
10,64533	-1780
10,65600	-1776
10,66667	-1785
10,67733	-1776
10,68800	-1775
10,69867	-1770
10,70933	-1771
10,72000	-1764
10,73067	-1765
10,74133	-1762
10,75200	-1760
10,76267	-1758
10,77333	-1760
10,78400	-1762
10,79467	-1759
10,80533	-1771
10,81600	-1782
10,82667	-1790
10,83733	-1794
10,84800	-1802
10,85867	-1806
10,86933	-1814
10,88000	-1818
10,89067	-1827
10,90133	-1830
10,91200	-1835
10,92267	-1840
10,93333	-1846
10,94400	-1844
10,95467	-1847
10,96533	-1846
10,97600	-1845
10,98667	-1851
10,99733	-1850
11,00800	-1853
11,01867	-1857
11,02933	-1856
11,04000	-1857
11,05067	-1863
11,06133	-1863
11,07200	-1870
11,08267	-1873
11,09333	-1874
11,10400	-1873
11,11467	-1877
11,12533	-1878
11,13600	-1882
11,14667	-1882
11,15733	-1885
11,16800	-1883
11,17867	-1881
11,18933	-1892
11,20000	-1892
11,21067	-1897
11,22133	-1900
11,23200	-1902
11,24267	-1906
11,25333	-1908
11,26400	-1905
11,27467	-1907
11,28533	-1905
11,29600	-1912
11,30667	-1919
11,31733	-1915
11,32800	-1918
11,33867	-1917
11,34933	-1920
11,36000	-1921
11,37067	-1921
11,38133	-1921
11,39200	-1925
11,40267	-1932
11,41333	-1936
11,42400	-1938
11,43467	-1941
11,44533	-1943
11,45600	-1951
11,46667	-1949
11,47733	-1944
11,48800	-1949
11,49867	-1950
11,50933	-1953
11,52000	-1955
11,53067	-1956
11,54133	-1956
11,55200	-1962
11,56267	-1965
11,57333	-1964
11,58400	-1968
11,59467	-1974
11,60533	-1977
11,61600	-1975
11,62667	-1978
11,63733	-1979
11,64800	-1977
11,65867	-1979
11,66933	-1982
11,68000	-1983
11,69067	-1986
11,70133	-1988
11,71200	-1991
11,72267	-1996
11,73333	-1996
11,74400	-1997
11,75467	-1991
11,76533	-1988
11,77600	-1991
11,78667	-1990
11,79733	-1994
11,80800	-1997
11,81867	-1997
11,82933	-2003
11,84000	-2005
11,85067	-2006
11,86133	-2011
11,87200	-2010
11,88267	-2013
11,89333	-2013
11,90400	-2018
11,91467	-2016
11,92533	-2018
11,93600	-2019
11,94667	-2022
11,95733	-2026
11,96800	-2026
11,97867	-2027
11,98933	-2025
12,00000	-2027
12,01067	-2031
12,02133	-2032
12,03200	-2029
12,04267	-2031
12,05333	-2032
12,06400	-2032
12,07467	-2041
12,08533	-2043
12,09600	-2043
12,10667	-2040
12,11733	-2041
12,12800	-2040
12,13867	-2046
12,14933	-2050
12,16000	-2045
12,17067	-2036
12,18133	-2038
12,19200	-2041
12,20267	-2034
12,21333	-2035
12,22400	-2034
12,23467	-2032
12,24533	-2028
12,25600	-2028
12,26667	-2022
12,27733	-2025
12,28800	-2023
12,29867	-2020
12,30933	-2015
12,32000	-2018
12,33067	-2021
12,34133	-2019
12,35200	-2015
12,36267	-1997
12,37333	-2001
12,38400	-2006
12,39467	-2011
12,40533	-2011
12,41600	-2010
12,42667	-2016
12,43733	-2011
12,44800	-2009
12,45867	-2005
12,46933	-2001
12,48000	-1994
12,49067	-1983
12,50133	-1978
12,51200	-1964
12,52267	-1948
12,53333	-1945
12,54400	-1935
12,55467	-1929
12,56533	-1931
12,57600	-1935
12,58667	-1946
12,59733	-1957
12,60800	-1967
12,61867	-1978
12,62933	-1989
12,64000	-1994
12,65067	-2003
12,66133	-2005
12,67200	-2009
12,68267	-2016
12,69333	-2024
12,70400	-2022
12,71467	-2030
12,72533	-2037
12,73600	-2039
12,74667	-2042
12,75733	-2045
12,76800	-2043
12,77867	-2043
12,78933	-2045
12,80000	-2046
12,81067	-2032
12,82133	-2030
12,83200	-2030
12,84267	-2022
12,85333	-2014
12,86400	-2005
12,87467	-1991
12,88533	-1982
12,89600	-1975
12,90667	-1967
12,91733	-1963
12,92800	-1967
12,93867	-1969
12,94933	-1980
12,96000	-1987
12,97067	-1997
12,98133	-2016
12,99200	-2021
13,00267	-2033
13,01333	-2038
13,02400	-2043
13,03467	-2050
13,04533	-2045
13,05600	-2053
13,06667	-2059
13,07733	-2065
13,08800	-2071
13,09867	-2074
13,10933	-2077
13,12000	-2082
13,13067	-2087
13,14133	-2090
13,15200	-2086
13,16267	-2089
13,17333	-2088
13,18400	-2092
13,19467	-2093
13,20533	-2088
13,21600	-2090
13,22667	-2098
13,23733	-2096
13,24800	-2100
13,25867	-2101
13,26933	-2103
13,28000	-2100
13,29067	-2091
13,30133	-2079
13,31200	-2070
13,32267	-2043
13,33333	-2004
13,34400	-1958
13,35467	-1901
13,36533	-1849
13,37600	-1796
13,38667	-1757
13,39733	-1744
13,40800	-1752
13,41867	-1782
13,42933	-1822
13,44000	-1870
13,45067	-1923
13,46133	-1967
13,47200	-2009
13,48267	-2040
13,49333	-2061
13,50400	-2083
13,51467	-2100
13,52533	-2114
13,53600	-2120
13,54667	-2124
13,55733	-2131
13,56800	-2133
13,57867	-2133
13,58933	-2135
13,60000	-2130
13,61067	-2129
13,62133	-2128
13,63200	-2121
13,64267	-2117
13,65333	-2112
13,66400	-2111
13,67467	-2102
13,68533	-2098
13,69600	-2097
13,70667	-2099
13,71733	-2100
13,72800	-2108
13,73867	-2113
13,74933	-2112
13,76000	-2121
13,77067	-2123
13,78133	-2123
13,79200	-2128
13,80267	-2130
13,81333	-2135
13,82400	-2134
13,83467	-2130
13,84533	-2129
13,85600	-2128
13,86667	-2124
13,87733	-2119
13,88800	-2120
13,89867	-2123
13,90933	-2121
13,92000	-2118
13,93067	-2122
13,94133	-2124
13,95200	-2125
13,96267	-2128
13,97333	-2126
13,98400	-2138
13,99467	-2140
14,00533	-2142
14,01600	-2142
14,02667	-2139
14,03733	-2143
14,04800	-2149
14,05867	-2146
14,06933	-2146
14,08000	-2146
14,09067	-2147
14,10133	-2149
14,11200	-2150
14,12267	-2146
14,13333	-2144
14,14400	-2144
14,15467	-2145
14,16533	-2142
14,17600	-2140
14,18667	-2137
14,19733	-2134
14,20800	-2138
14,21867	-2132
14,22933	-2132
14,24000	-2123
14,25067	-2115
14,26133	-2109
14,27200	-2107
14,28267	-2105
14,29333	-2110
14,30400	-2106
14,31467	-2105
14,32533	-2103
14,33600	-2107
14,34667	-2102
14,35733	-2096
14,36800	-2093
14,37867	-2072
14,38933	-2063
14,40000	-2058
14,41067	-2048
14,42133	-2040
14,43200	-2025
14,44267	-2012
14,45333	-2002
14,46400	-1992
14,47467	-1975
14,48533	-1963
14,49600	-1942
14,50667	-1933
14,51733	-1926
14,52800	-1918
14,53867	-1921
14,54933	-1931
14,56000	-1940
14,57067	-1950
14,58133	-1956
14,59200	-1959
14,60267	-1966
14,61333	-1970
14,62400	-1973
14,63467	-1974
14,64533	-1968
14,65600	-1972
14,66667	-1971
14,67733	-1967
14,68800	-1959
14,69867	-1944
14,70933	-1927
14,72000	-1894
14,73067	-1851
14,74133	-1792
14,75200	-1722
14,76267	-1654
14,77333	-1579
14,78400	-1509
14,79467	-1436
14,80533	-1364
14,81600	-1294
14,82667	-1187
14,83733	-973
14,84800	-531
14,85867	278
14,86933	1537
14,88000	3228
14,89067	5205
14,90133	7298
14,91200	9347
14,92267	11067
14,93333	12148
14,94400	12324
14,95467	11553
14,96533	10047
14,97600	8187
14,98667	6310
14,99733	4638
15,00800	3278
15,01867	2247
15,02933	1523
15,04000	1125
15,05067	1065
15,06133	1384
15,07200	2079
15,08267	3089
15,09333	4374
15,10400	6185
15,11467	9453
15,12533	16302
15,13600	29803
15,14667	52524
15,15733	84436
15,16800	123870
15,17867	169304
15,18933	217215
15,20000	260699
15,21067	292482
15,22133	307349
15,23200	304541
15,24267	287225
15,25333	259798
15,26400	226602
15,27467	191890
15,28533	158566
15,29600	128187
15,30667	101892
15,31733	80045
15,32800	62283
15,33867	48054
15,34933	36864
15,36000	28118
15,37067	21271
15,38133	15974
15,39200	11926
15,40267	8855
15,41333	6541
15,42400	4845
15,43467	3628
15,44533	2781
15,45600	2240
15,46667	1969
15,47733	1932
15,48800	2069
15,49867	2346
15,50933	2711
15,52000	3117
15,53067	3517
15,54133	3826
15,55200	3970
15,56267	3883
15,57333	3595
15,58400	3178
15,59467	2724
15,60533	2323
15,61600	2019
15,62667	1820
15,63733	1701
15,64800	1644
15,65867	1642
15,66933	1674
15,68000	1744
15,69067	1815
15,70133	1888
15,71200	1934
15,72267	1952
15,73333	1931
15,74400	1865
15,75467	1730
15,76533	1565
15,77600	1416
15,78667	1354
15,79733	1432
15,80800	1680
15,81867	2081
15,82933	2587
15,84000	3164
15,85067	3741
15,86133	4235
15,87200	4568
15,88267	4687
15,89333	4592
15,90400	4337
15,91467	3972
15,92533	3559
15,93600	3145
15,94667	2727
15,95733	2332
15,96800	1959
15,97867	1627
15,98933	1351
16,00000	1147
16,01067	1006
16,02133	920
16,03200	889
16,04267	877
16,05333	853
16,06400	778
16,07467	630
16,08533	433
16,09600	204
16,10667	-31
16,11733	-238
16,12800	-404
16,13867	-539
16,14933	-633
16,16000	-705
16,17067	-753
16,18133	-790
16,19200	-828
16,20267	-867
16,21333	-907
16,22400	-914
16,23467	-848
16,24533	-643
16,25600	-282
16,26667	229
16,27733	837
16,28800	1535
16,29867	2269
16,30933	2962
16,32000	3505
16,33067	3787
16,34133	3747
16,35200	3407
16,36267	2859
16,37333	2214
16,38400	1565
16,39467	974
16,40533	460
16,41600	23
16,42667	-331
16,43733	-620
16,44800	-861
16,45867	-1057
16,46933	-1203
16,48000	-1319
16,49067	-1413
16,50133	-1480
16,51200	-1518
16,52267	-1542
16,53333	-1553
16,54400	-1567
16,55467	-1573
16,56533	-1587
16,57600	-1601
16,58667	-1618
16,59733	-1642
16,60800	-1657
16,61867	-1663
16,62933	-1665
16,64000	-1649
16,65067	-1634
16,66133	-1608
16,67200	-1590
16,68267	-1571
16,69333	-1563
16,70400	-1559
16,71467	-1567
16,72533	-1602
16,73600	-1646
16,74667	-1699
16,75733	-1765
16,76800	-1829
16,77867	-1883
16,78933	-1931
16,80000	-1973
16,81067	-2006
16,82133	-2039
16,83200	-2064
16,84267	-2085
16,85333	-2105
16,86400	-2116
16,87467	-2127
16,88533	-2135
16,89600	-2144
16,90667	-2148
16,91733	-2152
16,92800	-2152
16,93867	-2153
16,94933	-2159
16,96000	-2162
16,97067	-2164
16,98133	-2162
16,99200	-2160
17,00267	-2162
17,01333	-2164
17,02400	-2165
17,03467	-2164
17,04533	-2165
17,05600	-2168
17,06667	-2171
17,07733	-2174
17,08800	-2173
17,09867	-2182
17,10933	-2180
17,12000	-2185
17,13067	-2186
17,14133	-2189
17,15200	-2188
17,16267	-2186
17,17333	-2190
17,18400	-2192
17,19467	-2190
17,20533	-2195
17,21600	-2199
17,22667	-2197
17,23733	-2198
17,24800	-2203
17,25867	-2198
17,26933	-2193
17,28000	-2189
17,29067	-2188
17,30133	-2179
17,31200	-2170
17,32267	-2162
17,33333	-2151
17,34400	-2143
17,35467	-2136
17,36533	-2133
17,37600	-2134
17,38667	-2141
17,39733	-2146
17,40800	-2153
17,41867	-2162
17,42933	-2174
17,44000	-2185
17,45067	-2193
17,46133	-2196
17,47200	-2201
17,48267	-2205
17,49333	-2203
17,50400	-2206
17,51467	-2203
17,52533	-2197
17,53600	-2197
17,54667	-2197
17,55733	-2196
17,56800	-2192
17,57867	-2188
17,58933	-2188
17,60000	-2189
17,61067	-2184
17,62133	-2174
17,63200	-2177
17,64267	-2173
17,65333	-2173
17,66400	-2168
17,67467	-2164
17,68533	-2154
17,69600	-2147
17,70667	-2144
17,71733	-2141
17,72800	-2132
17,73867	-2127
17,74933	-2120
17,76000	-2119
17,77067	-2120
17,78133	-2129
17,79200	-2130
17,80267	-2131
17,81333	-2129
17,82400	-2131
17,83467	-2140
17,84533	-2140
17,85600	-2144
17,86667	-2144
17,87733	-2149
17,88800	-2149
17,89867	-2149
17,90933	-2147
17,92000	-2146
17,93067	-2147
17,94133	-2148
17,95200	-2152
17,96267	-2154
17,97333	-2158
17,98400	-2160
17,99467	-2164
18,00533	-2165
18,01600	-2165
18,02667	-2168
18,03733	-2169
18,04800	-2166
18,05867	-2158
18,06933	-2157
18,08000	-2152
18,09067	-2139
18,10133	-2128
18,11200	-2119
18,12267	-2104
18,13333	-2096
18,14400	-2085
18,15467	-2077
18,16533	-2066
18,17600	-2061
18,18667	-2063
18,19733	-2075
18,20800	-2096
18,21867	-2115
18,22933	-2132
18,24000	-2148
18,25067	-2160
18,26133	-2175
18,27200	-2195
18,28267	-2199
18,29333	-2205
18,30400	-2211
18,31467	-2216
18,32533	-2213
18,33600	-2213
18,34667	-2213
18,35733	-2220
18,36800	-2218
18,37867	-2223
18,38933	-2222
18,40000	-2227
18,41067	-2225
18,42133	-2219
18,43200	-2214
18,44267	-2218
18,45333	-2211
18,46400	-2202
18,47467	-2195
18,48533	-2191
18,49600	-2177
18,50667	-2175
18,51733	-2166
18,52800	-2166
18,53867	-2171
18,54933	-2164
18,56000	-2165
18,57067	-2169
18,58133	-2172
18,59200	-2178
18,60267	-2184
18,61333	-2188
18,62400	-2192
18,63467	-2194
18,64533	-2199
18,65600	-2206
18,66667	-2202
18,67733	-2203
18,68800	-2209
18,69867	-2209
18,70933	-2212
18,72000	-2213
18,73067	-2217
18,74133	-2216
18,75200	-2216
18,76267	-2213
18,77333	-2208
18,78400	-2214
18,79467	-2213
18,80533	-2218
18,81600	-2215
18,82667	-2215
18,83733	-2220
18,84800	-2218
18,85867	-2218
18,86933	-2222
18,88000	-2225
18,89067	-2221
18,90133	-2219
18,91200	-2223
18,92267	-2225
18,93333	-2224
18,94400	-2226
18,95467	-2226
18,96533	-2224
18,97600	-2227
18,98667	-2225
18,99733	-2226
19,00800	-2222
19,01867	-2220
19,02933	-2223
19,04000	-2220
19,05067	-2218
19,06133	-2216
19,07200	-2217
19,08267	-2211
19,09333	-2207
19,10400	-2194
19,11467	-2165
19,12533	-2130
19,13600	-2086
19,14667	-2040
19,15733	-1986
19,16800	-1917
19,17867	-1844
19,18933	-1777
19,20000	-1716
19,21067	-1671
19,22133	-1636
19,23200	-1619
19,24267	-1601
19,25333	-1609
19,26400	-1604
19,27467	-1591
19,28533	-1560
19,29600	-1523
19,30667	-1477
19,31733	-1430
19,32800	-1379
19,33867	-1343
19,34933	-1312
19,36000	-1299
19,37067	-1306
19,38133	-1331
19,39200	-1374
19,40267	-1425
19,41333	-1483
19,42400	-1547
19,43467	-1604
19,44533	-1659
19,45600	-1702
19,46667	-1749
19,47733	-1798
19,48800	-1829
19,49867	-1854
19,50933	-1885
19,52000	-1908
19,53067	-1926
19,54133	-1941
19,55200	-1959
19,56267	-1972
19,57333	-1984
19,58400	-1995
19,59467	-2005
19,60533	-2012
19,61600	-2018
19,62667	-2029
19,63733	-2035
19,64800	-2038
19,65867	-2044
19,66933	-2054
19,68000	-2064
19,69067	-2059
19,70133	-2067
19,71200	-2076
19,72267	-2075
19,73333	-2078
19,74400	-2080
19,75467	-2087
19,76533	-2086
19,77600	-2085
19,78667	-2081
19,79733	-2084
19,80800	-2089
19,81867	-2089
19,82933	-2091
19,84000	-2089
19,85067	-2091
19,86133	-2090
19,87200	-2087
19,88267	-2086
19,89333	-2081
19,90400	-2081
19,91467	-2078
19,92533	-2075
19,93600	-2075
19,94667	-2073
19,95733	-2077
19,96800	-2074
19,97867	-2079
19,98933	-2084
20,00000	-2085
20,01067	-2092
20,02133	-2097
20,03200	-2100
20,04267	-2099
20,05333	-2099
20,06400	-2101
20,07467	-2101
20,08533	-2102
20,09600	-2100
20,10667	-2099
20,11733	-2098
20,12800	-2096
20,13867	-2097
20,14933	-2094
20,16000	-2092
20,17067	-2090
20,18133	-2087
20,19200	-2087
20,20267	-2084
20,21333	-2085
20,22400	-2083
20,23467	-2089
20,24533	-2088
20,25600	-2093
20,26667	-2091
20,27733	-2093
20,28800	-2092
20,29867	-2092
20,30933	-2094
20,32000	-2091
20,33067	-2090
20,34133	-2091
20,35200	-2087
20,36267	-2084
20,37333	-2081
20,38400	-2083
20,39467	-2086
20,40533	-2087
20,41600	-2085
20,42667	-2081
20,43733	-2077
20,44800	-2075
20,45867	-2074
20,46933	-2076
20,48000	-2080
20,49067	-2078
20,50133	-2070
20,51200	-2069
20,52267	-2067
20,53333	-2072
20,54400	-2067
20,55467	-2070
20,56533	-2056
20,57600	-2049
20,58667	-2053
20,59733	-2055
20,60800	-2055
20,61867	-2055
20,62933	-2055
20,64000	-2058
20,65067	-2059
20,66133	-2063
20,67200	-2067
20,68267	-2068
20,69333	-2066
20,70400	-2069
20,71467	-2064
20,72533	-2068
20,73600	-2064
20,74667	-2062
20,75733	-2060
20,76800	-2062
20,77867	-2058
20,78933	-2058
20,80000	-2063
20,81067	-2061
20,82133	-2062
20,83200	-2069
20,84267	-2063
20,85333	-2064
20,86400	-2067
20,87467	-2066
20,88533	-2069
20,89600	-2067
20,90667	-2062
20,91733	-2060
20,92800	-2055
20,93867	-2051
20,94933	-2046
20,96000	-2045
20,97067	-2035
20,98133	-2026
20,99200	-2020
21,00267	-2011
21,01333	-2007
21,02400	-2001
21,03467	-1992
21,04533	-1983
21,05600	-1981
21,06667	-1976
21,07733	-1971
21,08800	-1964
21,09867	-1962
21,10933	-1963
21,12000	-1965
21,13067	-1975
21,14133	-1973
21,15200	-1978
21,16267	-1979
21,17333	-1986
21,18400	-1983
21,19467	-1986
21,20533	-1989
21,21600	-1991
21,22667	-1995
21,23733	-2001
21,24800	-2000
21,25867	-2001
21,26933	-2003
21,28000	-2008
21,29067	-2006
21,30133	-2011
21,31200	-2007
21,32267	-2007
21,33333	-2007
21,34400	-2009
21,35467	-2006
21,36533	-1999
21,37600	-1998
21,38667	-1995
21,39733	-1989
21,40800	-1990
21,41867	-1983
21,42933	-1981
21,44000	-1982
21,45067	-1980
21,46133	-1981
21,47200	-1986
21,48267	-1986
21,49333	-1989
21,50400	-1994
21,51467	-1990
21,52533	-1992
21,53600	-1994
21,54667	-1994
21,55733	-1989
21,56800	-1991
21,57867	-1993
21,58933	-1989
21,60000	-1986
21,61067	-1986
21,62133	-1978
21,63200	-1970
21,64267	-1968
21,65333	-1963
21,66400	-1960
21,67467	-1959
21,68533	-1951
21,69600	-1947
21,70667	-1942
21,71733	-1937
21,72800	-1935
21,73867	-1928
21,74933	-1922
21,76000	-1921
21,77067	-1917
21,78133	-1913
21,79200	-1913
21,80267	-1911
21,81333	-1907
21,82400	-1903
21,83467	-1900
21,84533	-1898
21,85600	-1894
21,86667	-1897
21,87733	-1898
21,88800	-1899
21,89867	-1902
21,90933	-1901
21,92000	-1898
21,93067	-1904
21,94133	-1904
21,95200	-1905
21,96267	-1898
21,97333	-1892
21,98400	-1895
21,99467	-1889
22,00533	-1893
22,01600	-1889
22,02667	-1889
22,03733	-1893
22,04800	-1899
22,05867	-1899
22,06933	-1897
22,08000	-1897
22,09067	-1898
22,10133	-1893
22,11200	-1887
22,12267	-1892
22,13333	-1888
22,14400	-1885
22,15467	-1878
22,16533	-1871
22,17600	-1876
22,18667	-1873
22,19733	-1877
22,20800	-1880
22,21867	-1882
22,22933	-1887
22,24000	-1891
22,25067	-1895
22,26133	-1898
22,27200	-1908
22,28267	-1905
22,29333	-1903
22,30400	-1905
22,31467	-1900
22,32533	-1897
22,33600	-1898
22,34667	-1895
22,35733	-1898
22,36800	-1897
22,37867	-1897
22,38933	-1895
22,40000	-1892
22,41067	-1890
22,42133	-1889
22,43200	-1890
22,44267	-1887
22,45333	-1885
22,46400	-1887
22,47467	-1884
22,48533	-1888
22,49600	-1890
22,50667	-1892
22,51733	-1890
22,52800	-1889
22,53867	-1890
22,54933	-1889
22,56000	-1881
22,57067	-1879
22,58133	-1880
22,59200	-1868
22,60267	-1863
22,61333	-1856
22,62400	-1845
22,63467	-1840
22,64533	-1834
22,65600	-1827
22,66667	-1825
22,67733	-1816
22,68800	-1810
22,69867	-1805
22,70933	-1794
22,72000	-1795
22,73067	-1792
22,74133	-1799
22,75200	-1802
22,76267	-1799
22,77333	-1795
22,78400	-1788
22,79467	-1795
22,80533	-1795
22,81600	-1789
22,82667	-1786
22,83733	-1781
22,84800	-1773
22,85867	-1775
22,86933	-1767
22,88000	-1768
22,89067	-1766
22,90133	-1763
22,91200	-1767
22,92267	-1764
22,93333	-1763
22,94400	-1761
22,95467	-1757
22,96533	-1754
22,97600	-1749
22,98667	-1740
22,99733	-1737
23,00800	-1723
23,01867	-1718
23,02933	-1702
23,04000	-1687
23,05067	-1678
23,06133	-1668
23,07200	-1665
23,08267	-1663
23,09333	-1661
23,10400	-1659
23,11467	-1658
23,12533	-1657
23,13600	-1654
23,14667	-1650
23,15733	-1653
23,16800	-1645
23,17867	-1651
23,18933	-1656
23,20000	-1651
23,21067	-1651
23,22133	-1657
23,23200	-1661
23,24267	-1663
23,25333	-1667
23,26400	-1670
23,27467	-1672
23,28533	-1672
23,29600	-1677
23,30667	-1681
23,31733	-1675
23,32800	-1676
23,33867	-1674
23,34933	-1670
23,36000	-1668
23,37067	-1672
23,38133	-1672
23,39200	-1671
23,40267	-1671
23,41333	-1677
23,42400	-1676
23,43467	-1676
23,44533	-1676
23,45600	-1681
23,46667	-1682
23,47733	-1680
23,48800	-1680
23,49867	-1685
23,50933	-1691
23,52000	-1690
23,53067	-1692
23,54133	-1698
23,55200	-1700
23,56267	-1702
23,57333	-1708
23,58400	-1706
23,59467	-1710
23,60533	-1714
23,61600	-1716
23,62667	-1713
23,63733	-1716
23,64800	-1721
23,65867	-1714
23,66933	-1711
23,68000	-1708
23,69067	-1711
23,70133	-1709
23,71200	-1712
23,72267	-1707
23,73333	-1705
23,74400	-1705
23,75467	-1700
23,76533	-1695
23,77600	-1690
23,78667	-1680
23,79733	-1673
23,80800	-1666
23,81867	-1648
23,82933	-1640
23,84000	-1634
23,85067	-1629
23,86133	-1621
23,87200	-1613
23,88267	-1603
23,89333	-1602
23,90400	-1601
23,91467	-1610
23,92533	-1613
23,93600	-1613
23,94667	-1622
23,95733	-1628
23,96800	-1629
23,97867	-1635
23,98933	-1634
24,00000	-1634
24,01067	-1637
24,02133	-1637
24,03200	-1640
24,04267	-1640
24,05333	-1644
24,06400	-1647
24,07467	-1643
24,08533	-1648
24,09600	-1653
24,10667	-1649
24,11733	-1652
24,12800	-1651
24,13867	-1646
24,14933	-1649
24,16000	-1648
24,17067	-1653
24,18133	-1645
24,19200	-1647
24,20267	-1648
24,21333	-1646
24,22400	-1641
24,23467	-1641
24,24533	-1641
24,25600	-1635
24,26667	-1630
24,27733	-1622
24,28800	-1623
24,29867	-1614
24,30933	-1604
24,32000	-1597
24,33067	-1591
24,34133	-1577
24,35200	-1563
24,36267	-1553
24,37333	-1535
24,38400	-1520
24,39467	-1512
24,40533	-1498
24,41600	-1486
24,42667	-1472
24,43733	-1460
24,44800	-1449
24,45867	-1439
24,46933	-1431
24,48000	-1421
24,49067	-1418
24,50133	-1416
24,51200	-1418
24,52267	-1417
24,53333	-1419
24,54400	-1421
24,55467	-1424
24,56533	-1429
24,57600	-1435
24,58667	-1439
24,59733	-1441
24,60800	-1440
24,61867	-1447
24,62933	-1453
24,64000	-1460
24,65067	-1466
24,66133	-1471
24,67200	-1481
24,68267	-1484
24,69333	-1490
24,70400	-1489
24,71467	-1489
24,72533	-1497
24,73600	-1503
24,74667	-1506
24,75733	-1508
24,76800	-1509
24,77867	-1518
24,78933	-1518
24,80000	-1516
24,81067	-1512
24,82133	-1516
24,83200	-1519
24,84267	-1522
24,85333	-1523
24,86400	-1520
24,87467	-1521
24,88533	-1523
24,89600	-1525
24,90667	-1531
24,91733	-1528
24,92800	-1529
24,93867	-1524
24,94933	-1520
24,96000	-1525
24,97067	-1535
24,98133	-1535
24,99200	-1531
25,00267	-1530
25,01333	-1525
25,02400	-1528
25,03467	-1531
25,04533	-1529
25,05600	-1533
25,06667	-1533
25,07733	-1532
25,08800	-1532
25,09867	-1523
25,10933	-1519
25,12000	-1519
25,13067	-1522
25,14133	-1523
25,15200	-1524
25,16267	-1522
25,17333	-1520
25,18400	-1522
25,19467	-1525
25,20533	-1516
25,21600	-1512
25,22667	-1514
25,23733	-1515
25,24800	-1515
25,25867	-1511
25,26933	-1511
25,28000	-1509
25,29067	-1506
25,30133	-1510
25,31200	-1508
25,32267	-1502
25,33333	-1497
25,34400	-1494
25,35467	-1493
25,36533	-1490
25,37600	-1489
25,38667	-1487
25,39733	-1485
25,40800	-1486
25,41867	-1475
25,42933	-1475
25,44000	-1469
25,45067	-1467
25,46133	-1466
25,47200	-1467
25,48267	-1468
25,49333	-1466
25,50400	-1461
25,51467	-1460
25,52533	-1455
25,53600	-1451
25,54667	-1451
25,55733	-1449
25,56800	-1441
25,57867	-1437
25,58933	-1435
25,60000	-1429
25,61067	-1426
25,62133	-1423
25,63200	-1429
25,64267	-1427
25,65333	-1424
25,66400	-1427
25,67467	-1423
25,68533	-1422
25,69600	-1422
25,70667	-1425
25,71733	-1426
25,72800	-1429
25,73867	-1424
25,74933	-1424
25,76000	-1426
25,77067	-1428
25,78133	-1421
25,79200	-1418
25,80267	-1419
25,81333	-1419
25,82400	-1418
25,83467	-1415
25,84533	-1416
25,85600	-1417
25,86667	-1416
25,87733	-1413
25,88800	-1412
25,89867	-1410
25,90933	-1409
25,92000	-1408
25,93067	-1413
25,94133	-1411
25,95200	-1411
25,96267	-1413
25,97333	-1407
25,98400	-1402
25,99467	-1400
26,00533	-1395
26,01600	-1391
26,02667	-1385
26,03733	-1370
26,04800	-1362
26,05867	-1348
26,06933	-1337
26,08000	-1316
26,09067	-1291
26,10133	-1264
26,11200	-1232
26,12267	-1202
26,13333	-1166
26,14400	-1130
26,15467	-1095
26,16533	-1066
26,17600	-1031
26,18667	-992
26,19733	-957
26,20800	-934
26,21867	-911
26,22933	-896
26,24000	-897
26,25067	-905
26,26133	-923
26,27200	-944
26,28267	-975
26,29333	-1006
26,30400	-1033
26,31467	-1066
26,32533	-1092
26,33600	-1118
26,34667	-1129
26,35733	-1145
26,36800	-1156
26,37867	-1173
26,38933	-1171
26,40000	-1183
26,41067	-1193
26,42133	-1192
26,43200	-1200
26,44267	-1210
26,45333	-1216
26,46400	-1217
26,47467	-1221
26,48533	-1217
26,49600	-1220
26,50667	-1216
26,51733	-1217
26,52800	-1216
26,53867	-1215
26,54933	-1214
26,56000	-1209
26,57067	-1210
26,58133	-1212
26,59200	-1210
26,60267	-1206
26,61333	-1204
26,62400	-1201
26,63467	-1195
26,64533	-1197
26,65600	-1193
26,66667	-1196
26,67733	-1195
26,68800	-1198
26,69867	-1192
26,70933	-1195
26,72000	-1190
26,73067	-1191
26,74133	-1192
26,75200	-1194
26,76267	-1195
26,77333	-1192
26,78400	-1188
26,79467	-1186
26,80533	-1186
26,81600	-1191
26,82667	-1191
26,83733	-1186
26,84800	-1184
26,85867	-1184
26,86933	-1188
26,88000	-1189
26,89067	-1185
26,90133	-1184
26,91200	-1184
26,92267	-1185
26,93333	-1181
26,94400	-1181
26,95467	-1179
26,96533	-1182
26,97600	-1180
26,98667	-1173
26,99733	-1175
27,00800	-1170
27,01867	-1177
27,02933	-1172
27,04000	-1165
27,05067	-1167
27,06133	-1168
27,07200	-1165
27,08267	-1169
27,09333	-1165
27,10400	-1161
27,11467	-1159
27,12533	-1153
27,13600	-1150
27,14667	-1147
27,15733	-1147
27,16800	-1145
27,17867	-1144
27,18933	-1142
27,20000	-1142
27,21067	-1139
27,22133	-1135
27,23200	-1138
27,24267	-1133
27,25333	-1130
27,26400	-1125
27,27467	-1103
27,28533	-1115
27,29600	-1114
27,30667	-1117
27,31733	-1120
27,32800	-1117
27,33867	-1111
27,34933	-1109
27,36000	-1107
27,37067	-1106
27,38133	-1103
27,39200	-1102
27,40267	-1098
27,41333	-1091
27,42400	-1085
27,43467	-1074
27,44533	-1057
27,45600	-1041
27,46667	-1027
27,47733	-1008
27,48800	-989
27,49867	-969
27,50933	-943
27,52000	-915
27,53067	-885
27,54133	-861
27,55200	-831
27,56267	-814
27,57333	-791
27,58400	-768
27,59467	-753
27,60533	-742
27,61600	-742
27,62667	-743
27,63733	-752
27,64800	-776
27,65867	-798
27,66933	-818
27,68000	-838
27,69067	-860
27,70133	-871
27,71200	-882
27,72267	-891
27,73333	-900
27,74400	-904
27,75467	-904
27,76533	-905
27,77600	-908
27,78667	-915
27,79733	-912
27,80800	-913
27,81867	-912
27,82933	-907
27,84000	-900
27,85067	-897
27,86133	-891
27,87200	-883
27,88267	-887
27,89333	-882
27,90400	-874
27,91467	-872
27,92533	-875
27,93600	-882
27,94667	-881
27,95733	-885
27,96800	-893
27,97867	-899
27,98933	-903
28,00000	-912
28,01067	-917
28,02133	-925
28,03200	-932
28,04267	-936
28,05333	-910
28,06400	-926
28,07467	-935
28,08533	-939
28,09600	-940
28,10667	-940
28,11733	-945
28,12800	-944
28,13867	-936
28,14933	-938
28,16000	-943
28,17067	-946
28,18133	-938
28,19200	-935
28,20267	-938
28,21333	-941
28,22400	-939
28,23467	-933
28,24533	-936
28,25600	-938
28,26667	-936
28,27733	-930
28,28800	-932
28,29867	-934
28,30933	-937
28,32000	-925
28,33067	-916
28,34133	-927
28,35200	-934
28,36267	-925
28,37333	-924
28,38400	-925
28,39467	-930
28,40533	-929
28,41600	-926
28,42667	-922
28,43733	-923
28,44800	-928
28,45867	-920
28,46933	-916
28,48000	-917
28,49067	-921
28,50133	-920
28,51200	-910
28,52267	-907
28,53333	-912
28,54400	-920
28,55467	-908
28,56533	-904
28,57600	-909
28,58667	-910
28,59733	-901
28,60800	-900
28,61867	-898
28,62933	-905
28,64000	-898
28,65067	-891
28,66133	-885
28,67200	-890
28,68267	-892
28,69333	-881
28,70400	-880
28,71467	-883
28,72533	-885
28,73600	-883
28,74667	-877
28,75733	-882
28,76800	-884
28,77867	-885
28,78933	-873
28,80000	-869
28,81067	-871
28,82133	-877
28,83200	-872
28,84267	-871
28,85333	-871
28,86400	-877
28,87467	-875
28,88533	-864
28,89600	-858
28,90667	-864
28,91733	-869
28,92800	-858
28,93867	-850
28,94933	-851
28,96000	-857
28,97067	-852
28,98133	-844
28,99200	-848
29,00267	-852
29,01333	-858
29,02400	-843
29,03467	-843
29,04533	-845
29,05600	-854
29,06667	-843
29,07733	-838
29,08800	-838
29,09867	-840
29,10933	-844
29,12000	-837
29,13067	-830
29,14133	-831
29,15200	-833
29,16267	-825
29,17333	-827
29,18400	-826
29,19467	-832
29,20533	-826
29,21600	-817
29,22667	-819
29,23733	-818
29,24800	-819
29,25867	-808
29,26933	-813
29,28000	-814
29,29067	-817
29,30133	-812
29,31200	-806
29,32267	-807
29,33333	-809
29,34400	-805
29,35467	-794
29,36533	-788
29,37600	-788
29,38667	-787
29,39733	-771
29,40800	-756
29,41867	-734
29,42933	-709
29,44000	-676
29,45067	-634
29,46133	-580
29,47200	-522
29,48267	-471
29,49333	-402
29,50400	-334
29,51467	-263
29,52533	-198
29,53600	-135
29,54667	-78
29,55733	-28
29,56800	8
29,57867	31
29,58933	54
29,60000	49
29,61067	26
29,62133	-17
29,63200	-66
29,64267	-125
29,65333	-191
29,66400	-250
29,67467	-312
29,68533	-355
29,69600	-396
29,70667	-424
29,71733	-446
29,72800	-466
29,73867	-483
29,74933	-498
29,76000	-512
29,77067	-519
29,78133	-526
29,79200	-534
29,80267	-540
29,81333	-546
29,82400	-551
29,83467	-551
29,84533	-555
29,85600	-562
29,86667	-567
29,87733	-567
29,88800	-569
29,89867	-570
29,90933	-570
29,92000	-569
29,93067	-572
29,94133	-573
29,95200	-567
29,96267	-568
29,97333	-562
29,98400	-568
29,99467	-570
30,00533	-572
30,01600	-566
30,02667	-567
30,03733	-570
30,04800	-572
30,05867	-571
30,06933	-569
30,08000	-570
30,09067	-571
30,10133	-570
30,11200	-562
30,12267	-562
30,13333	-555
30,14400	-558
30,15467	-553
30,16533	-550
30,17600	-545
30,18667	-538
30,19733	-535
30,20800	-527
30,21867	-524
30,22933	-517
30,24000	-513
30,25067	-505
30,26133	-495
30,27200	-484
30,28267	-478
30,29333	-473
30,30400	-463
30,31467	-457
30,32533	-448
30,33600	-442
30,34667	-436
30,35733	-430
30,36800	-425
30,37867	-420
30,38933	-416
30,40000	-415
30,41067	-413
30,42133	-411
30,43200	-407
30,44267	-407
30,45333	-410
30,46400	-415
30,47467	-421
30,48533	-422
30,49600	-427
30,50667	-430
30,51733	-433
30,52800	-436
30,53867	-440
30,54933	-442
30,56000	-445
30,57067	-448
30,58133	-441
30,59200	-436
30,60267	-428
30,61333	-421
30,62400	-409
30,63467	-402
30,64533	-399
30,65600	-393
30,66667	-387
30,67733	-382
30,68800	-382
30,69867	-379
30,70933	-376
30,72000	-374
30,73067	-373
30,74133	-376
30,75200	-375
30,76267	-375
30,77333	-378
30,78400	-379
30,79467	-381
30,80533	-377
30,81600	-382
30,82667	-384
30,83733	-382
30,84800	-382
30,85867	-382
30,86933	-381
30,88000	-375
30,89067	-375
30,90133	-377
30,91200	-373
30,92267	-370
30,93333	-369
30,94400	-363
30,95467	-361
30,96533	-358
30,97600	-360
30,98667	-357
30,99733	-358
31,00800	-357
31,01867	-356
31,02933	-353
31,04000	-353
31,05067	-353
31,06133	-360
31,07200	-357
31,08267	-363
31,09333	-364
31,10400	-370
31,11467	-374
31,12533	-374
31,13600	-380
31,14667	-387
31,15733	-387
31,16800	-389
31,17867	-393
31,18933	-388
31,20000	-387
31,21067	-385
31,22133	-392
31,23200	-395
31,24267	-398
31,25333	-392
31,26400	-398
31,27467	-403
31,28533	-405
31,29600	-411
31,30667	-417
31,31733	-419
31,32800	-427
31,33867	-429
31,34933	-430
31,36000	-432
31,37067	-431
31,38133	-425
31,39200	-431
31,40267	-430
31,41333	-430
31,42400	-430
31,43467	-430
31,44533	-436
31,45600	-426
31,46667	-426
31,47733	-424
31,48800	-422
31,49867	-415
31,50933	-412
31,52000	-409
31,53067	-406
31,54133	-406
31,55200	-402
31,56267	-402
31,57333	-395
31,58400	-390
31,59467	-393
31,60533	-390
31,61600	-390
31,62667	-383
31,63733	-378
31,64800	-381
31,65867	-378
31,66933	-378
31,68000	-372
31,69067	-371
31,70133	-375
31,71200	-372
31,72267	-368
31,73333	-373
31,74400	-371
31,75467	-368
31,76533	-364
31,77600	-363
31,78667	-357
31,79733	-352
31,80800	-357
31,81867	-351
31,82933	-349
31,84000	-345
31,85067	-346
31,86133	-348
31,87200	-343
31,88267	-344
31,89333	-344
31,90400	-344
31,91467	-342
31,92533	-340
31,93600	-340
31,94667	-335
31,95733	-337
31,96800	-333
31,97867	-330
31,98933	-338
32,00000	-334
32,01067	-336
32,02133	-338
32,03200	-331
32,04267	-331
32,05333	-331
32,06400	-330
32,07467	-333
32,08533	-329
32,09600	-328
32,10667	-329
32,11733	-328
32,12800	-327
32,13867	-326
32,14933	-322
32,16000	-321
32,17067	-319
32,18133	-315
32,19200	-313
32,20267	-312
32,21333	-311
32,22400	-308
32,23467	-312
32,24533	-311
32,25600	-307
32,26667	-300
32,27733	-300
32,28800	-300
32,29867	-302
32,30933	-298
32,32000	-299
32,33067	-294
32,34133	-297
32,35200	-298
32,36267	-294
32,37333	-299
32,38400	-292
32,39467	-290
32,40533	-295
32,41600	-297
32,42667	-297
32,43733	-294
32,44800	-291
32,45867	-298
32,46933	-298
32,48000	-290
32,49067	-287
32,50133	-288
32,51200	-293
32,52267	-289
32,53333	-292
32,54400	-287
32,55467	-287
32,56533	-285
32,57600	-290
32,58667	-293
32,59733	-291
32,60800	-291
32,61867	-291
32,62933	-288
32,64000	-279
32,65067	-284
32,66133	-288
32,67200	-283
32,68267	-283
32,69333	-281
32,70400	-280
32,71467	-277
32,72533	-277
32,73600	-279
32,74667	-276
32,75733	-280
32,76800	-276
32,77867	-276
32,78933	-273
32,80000	-274
32,81067	-270
32,82133	-268
32,83200	-267
32,84267	-268
32,85333	-267
32,86400	-267
32,87467	-267
32,88533	-268
32,89600	-267
32,90667	-267
32,91733	-266
32,92800	-265
32,93867	-259
32,94933	-260
32,96000	-262
32,97067	-261
32,98133	-254
32,99200	-258
33,00267	-254
33,01333	-255
33,02400	-256
33,03467	-254
33,04533	-254
33,05600	-254
33,06667	-253
33,07733	-250
33,08800	-229
33,09867	-239
33,10933	-246
33,12000	-246
33,13067	-247
33,14133	-247
33,15200	-248
33,16267	-250
33,17333	-248
33,18400	-247
33,19467	-245
33,20533	-245
33,21600	-244
33,22667	-241
33,23733	-240
33,24800	-238
33,25867	-238
33,26933	-237
33,28000	-237
33,29067	-230
33,30133	-238
33,31200	-238
33,32267	-232
33,33333	-231
33,34400	-232
33,35467	-232
33,36533	-234
33,37600	-227
33,38667	-231
33,39733	-233
33,40800	-231
33,41867	-230
33,42933	-235
33,44000	-229
33,45067	-227
33,46133	-228
33,47200	-229
33,48267	-230
33,49333	-226
33,50400	-232
33,51467	-232
33,52533	-232
33,53600	-228
33,54667	-229
33,55733	-225
33,56800	-226
33,57867	-227
33,58933	-224
33,60000	-223
33,61067	-223
33,62133	-221
33,63200	-225
33,64267	-227
33,65333	-223
33,66400	-227
33,67467	-227
33,68533	-226
33,69600	-226
33,70667	-223
33,71733	-224
33,72800	-223
33,73867	-221
33,74933	-220
33,76000	-219
33,77067	-217
33,78133	-217
33,79200	-218
33,80267	-211
33,81333	-210
33,82400	-208
33,83467	-210
33,84533	-209
33,85600	-207
33,86667	-206
33,87733	-204
33,88800	-208
33,89867	-205
33,90933	-204
33,92000	-198
33,93067	-196
33,94133	-194
33,95200	-196
33,96267	-198
33,97333	-193
33,98400	-196
33,99467	-193
34,00533	-194
34,01600	-197
34,02667	-193
34,03733	-195
34,04800	-199
34,05867	-195
34,06933	-194
34,08000	-191
34,09067	-192
34,10133	-187
34,11200	-188
34,12267	-183
34,13333	-184
34,14400	-183
34,15467	-182
34,16533	-180
34,17600	-180
34,18667	-181
34,19733	-181
34,20800	-178
34,21867	-179
34,22933	-177
34,24000	-182
34,25067	-174
34,26133	-176
34,27200	-175
34,28267	-171
34,29333	-171
34,30400	-174
34,31467	-171
34,32533	-173
34,33600	-172
34,34667	-170
34,35733	-171
34,36800	-171
34,37867	-168
34,38933	-169
34,40000	-166
34,41067	-174
34,42133	-174
34,43200	-169
34,44267	-168
34,45333	-169
34,46400	-174
34,47467	-172
34,48533	-174
34,49600	-171
34,50667	-168
34,51733	-169
34,52800	-167
34,53867	-167
34,54933	-173
34,56000	-172
34,57067	-171
34,58133	-168
34,59200	-177
34,60267	-171
34,61333	-169
34,62400	-168
34,63467	-167
34,64533	-164
34,65600	-162
34,66667	-164
34,67733	-164
34,68800	-169
34,69867	-165
34,70933	-166
34,72000	-163
34,73067	-165
34,74133	-165
34,75200	-166
34,76267	-163
34,77333	-164
34,78400	-162
34,79467	-165
34,80533	-167
34,81600	-163
34,82667	-160
34,83733	-157
34,84800	-157
34,85867	-156
34,86933	-155
34,88000	-156
34,89067	-158
34,90133	-159
34,91200	-154
34,92267	-156
34,93333	-155
34,94400	-153
34,95467	-152
34,96533	-151
34,97600	-150
34,98667	-150
34,99733	-148
35,00800	-142
35,01867	-145
35,02933	-140
35,04000	-149
35,05067	-144
35,06133	-146
35,07200	-145
35,08267	-150
35,09333	-150
35,10400	-152
35,11467	-149
35,12533	-144
35,13600	-144
35,14667	-145
35,15733	-143
35,16800	-136
35,17867	-141
35,18933	-140
35,20000	-142
35,21067	-143
35,22133	-142
35,23200	-146
35,24267	-141
35,25333	-138
35,26400	-137
35,27467	-138
35,28533	-139
35,29600	-136
35,30667	-135
35,31733	-137
35,32800	-136
35,33867	-138
35,34933	-139
35,36000	-140
35,37067	-137
35,38133	-133
35,39200	-137
35,40267	-136
35,41333	-135
35,42400	-135
35,43467	-132
35,44533	-134
35,45600	-132
35,46667	-133
35,47733	-130
35,48800	-131
35,49867	-132
35,50933	-133
35,52000	-131
35,53067	-132
35,54133	-128
35,55200	-127
35,56267	-130
35,57333	-132
35,58400	-128
35,59467	-128
35,60533	-127
35,61600	-126
35,62667	-122
35,63733	-123
35,64800	-126
35,65867	-124
35,66933	-123
35,68000	-123
35,69067	-117
35,70133	-119
35,71200	-121
35,72267	-120
35,73333	-118
35,74400	-118
35,75467	-118
35,76533	-118
35,77600	-119
35,78667	-123
35,79733	-121
35,80800	-125
35,81867	-123
35,82933	-123
35,84000	-122
35,85067	-122
35,86133	-122
35,87200	-124
35,88267	-120
35,89333	-119
35,90400	-122
35,91467	-120
35,92533	-123
35,93600	-125
35,94667	-123
35,95733	-118
35,96800	-120
35,97867	-122
35,98933	-124
36,00000	-119
36,01067	-119
36,02133	-114


