[Header]
Application Name	LabSolutions
Version	5.71
Data File Name	C:\LabSolutions\Data\Project1\Daniel Moreira\COMPOUND1\2025.07.03_compound1_8_008.lcd
Output Date	02/01/2013
Output Time	20:59:51

[File Information]
Type	Data File
Generated	02/01/2013 19:02:34
Generated by	System Administrator
Modified	02/01/2013 19:39:02
Modified by	System Administrator

[Sample Information]
Operator Name	System Administrator
Acquired	02/01/2013 19:02:59
Sample Type	0:Unknown
Level	0
Sample Name	Compound1-Std
Sample ID	Compound1-Std
ISTD Amount1	1
ISTD Amount2	1
ISTD Amount3	1
ISTD Amount4	1
ISTD Amount5	1
ISTD Amount6	1
ISTD Amount7	1
ISTD Amount8	1
ISTD Amount9	1
ISTD Amount10	1
ISTD Amount11	1
ISTD Amount12	1
ISTD Amount13	1
ISTD Amount14	1
ISTD Amount15	1
ISTD Amount16	1
ISTD Amount17	1
ISTD Amount18	1
ISTD Amount19	1
ISTD Amount20	1
ISTD Amount21	1
ISTD Amount22	1
ISTD Amount23	1
ISTD Amount24	1
ISTD Amount25	1
ISTD Amount26	1
ISTD Amount27	1
ISTD Amount28	1
ISTD Amount29	1
ISTD Amount30	1
ISTD Amount31	1
ISTD Amount32	1
Sample Amount	1
Dilution Factor	1
Vial#	66
Injection Volume	25

[Original Files]
Data File	C:\LabSolutions\Data\Project1\Daniel Moreira\COMPOUND1\2025.07.03_compound1_8_008.lcd
Method File	C:\LabSolutions\Data\Project1\Daniel Moreira\COMPOUND1.lcm
Batch File	C:\LabSolutions\Data\Project1\Daniel Moreira\COMPOUND1\2025.07.03_compound1.lcb
Report Format File	C:\LabSolutions\System\DEFAULT.lsr

[File Description]


[Configuration]
Instrument Name	HPLC-PC-Instrument
Instrument #	2
Line #	1
# of Detectors	1
Detector ID	PDA
Detector Name	PDA
# of Channels	1

[Peak Table(PDA-Ch2)]
# of Peaks	23
Peak#	R.Time	I.Time	F.Time	Area	Height	A/H	Conc.	Mark	ID#	Name	k'	Plate #	Plate Ht.	Tailing	Resolution	Sep.Factor	Area Ratio	Height Ratio	Conc. %	Norm Conc.
1	0,725	0,107	1,333	112451	23518	4,781	0,000	   			0,000	22	6927,944	0,831	0,000	0,000	0	0	0,000	0,000
2	2,752	2,037	2,923	4178	134	31,256	0,000	   			2,798	203	740,332	0,610	2,904	0,000	0	0	0,000	0,000
3	3,157	2,923	3,232	1556	124	12,517	0,000	   			3,357	1217	123,296	0,000	0,714	1,200	0	0	0,000	0,000
4	3,351	3,232	3,605	6865	702	9,772	0,000	 V 			3,625	2480	60,494	0,000	0,615	1,080	0	0	0,000	0,000
5	9,941	9,845	10,101	1441	126	11,436	0,000	   			12,718	11042	13,585	0,000	20,350	3,509	0	0	0,000	0,000
6	10,185	10,101	10,432	1848	265	6,985	0,000	 V 			13,054	31438	4,771	0,000	0,801	1,026	0	0	0,000	0,000
7	12,541	12,405	12,757	1418	175	8,090	0,000	   			16,305	48813	3,073	1,238	10,316	1,249	0	0	0,000	0,000
8	12,899	12,757	13,109	1619	191	8,460	0,000	   			16,799	45903	3,268	1,232	1,529	1,030	0	0	0,000	0,000
9	13,395	13,269	13,579	5199	785	6,619	0,000	   			17,483	75492	1,987	1,132	2,275	1,041	0	0	0,000	0,000
10	14,507	14,293	14,603	3920	388	10,096	0,000	   			19,018	18847	7,959	0,000	3,601	1,088	0	0	0,000	0,000
11	14,924	14,603	15,029	211733	29966	7,066	0,000	 V 			19,594	87279	1,719	0,000	1,337	1,030	0	0	0,000	0,000
12	15,191	15,029	16,939	4954442	574049	8,631	0,000	SV 			19,962	70746	2,120	1,357	1,239	1,019	0	0	0,000	0,000
13	15,544	15,456	15,648	31912	5443	5,863	0,000	T  			20,449	122532	1,224	0,000	1,737	1,024	0	0	0,000	0,000
14	15,714	15,648	15,776	15863	2506	6,331	0,000	TV 			20,684	45859	3,271	0,000	0,724	1,012	0	0	0,000	0,000
15	15,873	15,776	16,149	87868	9139	9,615	0,000	TV 			20,903	62369	2,405	0,000	0,580	1,011	0	0	0,000	0,000
16	16,325	16,213	16,501	68392	10378	6,590	0,000	T  			21,527	112210	1,337	1,198	2,011	1,030	0	0	0,000	0,000
17	16,684	16,619	16,821	2473	408	6,061	0,000	T  			22,022	146765	1,022	1,462	1,947	1,023	0	0	0,000	0,000
18	18,167	18,027	18,336	1989	262	7,598	0,000	   			24,069	108328	1,385	1,052	7,508	1,093	0	0	0,000	0,000
19	19,202	19,040	19,285	9598	1181	8,127	0,000	   			25,497	49801	3,012	0,000	3,665	1,059	0	0	0,000	0,000
20	19,338	19,285	19,723	8925	898	9,938	0,000	 V 			25,684	13270	11,303	0,000	0,267	1,007	0	0	0,000	0,000
21	26,227	26,005	26,475	4866	419	11,623	0,000	   			35,191	109695	1,367	1,104	13,943	1,370	0	0	0,000	0,000
22	27,593	27,381	27,744	2449	243	10,071	0,000	   			37,076	157378	0,953	0,883	4,591	1,054	0	0	0,000	0,000
23	29,570	29,355	29,856	8574	750	11,428	0,000	   			39,804	151846	0,988	1,184	6,797	1,074	0	0	0,000	0,000

[Compound Results(PDA)]
# of IDs	0

[PDA Multi Chromatogram(Ch2)]
# of Points	      3378
Interval(msec)	640
Start Time(min)	0
End Time(min)	36,0213
Intensity Units	mAU
Intensity Multiplier	1
Type	MultiChrom
Wavelength(nm)	280
Bandwidth(nm)	4
R.Time (min)	Intensity
0,00000	0
0,01067	0
0,02133	0
0,03200	0
0,04267	0
0,05333	0
0,06400	0
0,07467	0
0,08533	0
0,09600	0
0,10667	0
0,11733	10
0,12800	27
0,13867	39
0,14933	58
0,16000	80
0,17067	96
0,18133	111
0,19200	124
0,20267	136
0,21333	151
0,22400	165
0,23467	177
0,24533	190
0,25600	201
0,26667	219
0,27733	235
0,28800	252
0,29867	273
0,30933	296
0,32000	315
0,33067	351
0,34133	352
0,35200	354
0,36267	364
0,37333	373
0,38400	385
0,39467	393
0,40533	403
0,41600	418
0,42667	422
0,43733	424
0,44800	430
0,45867	448
0,46933	455
0,48000	455
0,49067	465
0,50133	475
0,51200	484
0,52267	495
0,53333	507
0,54400	521
0,55467	527
0,56533	545
0,57600	559
0,58667	579
0,59733	597
0,60800	625
0,61867	651
0,62933	671
0,64000	702
0,65067	730
0,66133	768
0,67200	817
0,68267	891
0,69333	987
0,70400	1189
0,71467	13103
0,72533	22198
0,73600	10551
0,74667	8075
0,75733	6998
0,76800	5608
0,77867	4201
0,78933	3132
0,80000	2327
0,81067	1732
0,82133	1289
0,83200	942
0,84267	641
0,85333	378
0,86400	150
0,87467	-52
0,88533	-233
0,89600	-400
0,90667	-557
0,91733	-692
0,92800	-821
0,93867	-939
0,94933	-1047
0,96000	-1155
0,97067	-1245
0,98133	-1332
0,99200	-1414
1,00267	-1488
1,01333	-1556
1,02400	-1625
1,03467	-1688
1,04533	-1744
1,05600	-1804
1,06667	-1857
1,07733	-1911
1,08800	-1959
1,09867	-1999
1,10933	-2045
1,12000	-2083
1,13067	-2113
1,14133	-2148
1,15200	-2183
1,16267	-2214
1,17333	-2237
1,18400	-2272
1,19467	-2303
1,20533	-2327
1,21600	-2357
1,22667	-2385
1,23733	-2416
1,24800	-2439
1,25867	-2461
1,26933	-2487
1,28000	-2452
1,29067	-2504
1,30133	-2541
1,31200	-2569
1,32267	-2595
1,33333	-2621
1,34400	-2638
1,35467	-2656
1,36533	-2676
1,37600	-2693
1,38667	-2709
1,39733	-2725
1,40800	-2741
1,41867	-2757
1,42933	-2771
1,44000	-2786
1,45067	-2795
1,46133	-2808
1,47200	-2821
1,48267	-2831
1,49333	-2845
1,50400	-2856
1,51467	-2859
1,52533	-2867
1,53600	-2870
1,54667	-2883
1,55733	-2893
1,56800	-2891
1,57867	-2898
1,58933	-2898
1,60000	-2903
1,61067	-2905
1,62133	-2875
1,63200	-2898
1,64267	-2907
1,65333	-2911
1,66400	-2916
1,67467	-2914
1,68533	-2912
1,69600	-2911
1,70667	-2915
1,71733	-2909
1,72800	-2914
1,73867	-2908
1,74933	-2903
1,76000	-2901
1,77067	-2897
1,78133	-2893
1,79200	-2888
1,80267	-2885
1,81333	-2878
1,82400	-2878
1,83467	-2876
1,84533	-2869
1,85600	-2864
1,86667	-2861
1,87733	-2857
1,88800	-2850
1,89867	-2850
1,90933	-2845
1,92000	-2840
1,93067	-2832
1,94133	-2825
1,95200	-2817
1,96267	-2809
1,97333	-2801
1,98400	-2794
1,99467	-2788
2,00533	-2781
2,01600	-2772
2,02667	-2763
2,03733	-2751
2,04800	-2745
2,05867	-2740
2,06933	-2734
2,08000	-2726
2,09067	-2715
2,10133	-2706
2,11200	-2698
2,12267	-2693
2,13333	-2684
2,14400	-2680
2,15467	-2670
2,16533	-2663
2,17600	-2653
2,18667	-2644
2,19733	-2637
2,20800	-2624
2,21867	-2615
2,22933	-2607
2,24000	-2600
2,25067	-2586
2,26133	-2575
2,27200	-2566
2,28267	-2557
2,29333	-2547
2,30400	-2543
2,31467	-2536
2,32533	-2526
2,33600	-2517
2,34667	-2510
2,35733	-2498
2,36800	-2491
2,37867	-2476
2,38933	-2469
2,40000	-2465
2,41067	-2456
2,42133	-2447
2,43200	-2433
2,44267	-2425
2,45333	-2416
2,46400	-2406
2,47467	-2398
2,48533	-2389
2,49600	-2377
2,50667	-2369
2,51733	-2365
2,52800	-2355
2,53867	-2348
2,54933	-2340
2,56000	-2333
2,57067	-2326
2,58133	-2318
2,59200	-2309
2,60267	-2300
2,61333	-2289
2,62400	-2279
2,63467	-2273
2,64533	-2266
2,65600	-2260
2,66667	-2250
2,67733	-2246
2,68800	-2237
2,69867	-2231
2,70933	-2231
2,72000	-2224
2,73067	-2217
2,74133	-2213
2,75200	-2209
2,76267	-2204
2,77333	-2198
2,78400	-2194
2,79467	-2201
2,80533	-2205
2,81600	-2210
2,82667	-2214
2,83733	-2220
2,84800	-2227
2,85867	-2234
2,86933	-2239
2,88000	-2247
2,89067	-2251
2,90133	-2256
2,91200	-2250
2,92267	-2245
2,93333	-2235
2,94400	-2218
2,95467	-2206
2,96533	-2188
2,97600	-2170
2,98667	-2142
2,99733	-2125
3,00800	-2107
3,01867	-2092
3,02933	-2083
3,04000	-2076
3,05067	-2070
3,06133	-2065
3,07200	-2062
3,08267	-2063
3,09333	-2063
3,10400	-2051
3,11467	-2032
3,12533	-2018
3,13600	-1999
3,14667	-1981
3,15733	-1967
3,16800	-1960
3,17867	-1963
3,18933	-1964
3,20000	-1962
3,21067	-1958
3,22133	-1958
3,23200	-1957
3,24267	-1948
3,25333	-1921
3,26400	-1869
3,27467	-1801
3,28533	-1720
3,29600	-1607
3,30667	-1496
3,31733	-1394
3,32800	-1322
3,33867	-1280
3,34933	-1261
3,36000	-1269
3,37067	-1292
3,38133	-1321
3,39200	-1366
3,40267	-1407
3,41333	-1461
3,42400	-1508
3,43467	-1542
3,44533	-1579
3,45600	-1621
3,46667	-1649
3,47733	-1671
3,48800	-1701
3,49867	-1718
3,50933	-1735
3,52000	-1745
3,53067	-1756
3,54133	-1767
3,55200	-1772
3,56267	-1783
3,57333	-1787
3,58400	-1795
3,59467	-1795
3,60533	-1797
3,61600	-1796
3,62667	-1789
3,63733	-1782
3,64800	-1776
3,65867	-1765
3,66933	-1760
3,68000	-1759
3,69067	-1754
3,70133	-1746
3,71200	-1738
3,72267	-1736
3,73333	-1729
3,74400	-1730
3,75467	-1731
3,76533	-1719
3,77600	-1711
3,78667	-1706
3,79733	-1705
3,80800	-1699
3,81867	-1699
3,82933	-1694
3,84000	-1688
3,85067	-1685
3,86133	-1682
3,87200	-1678
3,88267	-1672
3,89333	-1673
3,90400	-1667
3,91467	-1665
3,92533	-1661
3,93600	-1658
3,94667	-1655
3,95733	-1648
3,96800	-1642
3,97867	-1634
3,98933	-1626
4,00000	-1618
4,01067	-1614
4,02133	-1616
4,03200	-1607
4,04267	-1600
4,05333	-1601
4,06400	-1604
4,07467	-1600
4,08533	-1603
4,09600	-1601
4,10667	-1598
4,11733	-1598
4,12800	-1595
4,13867	-1588
4,14933	-1588
4,16000	-1590
4,17067	-1587
4,18133	-1589
4,19200	-1589
4,20267	-1588
4,21333	-1589
4,22400	-1585
4,23467	-1583
4,24533	-1583
4,25600	-1583
4,26667	-1576
4,27733	-1576
4,28800	-1574
4,29867	-1568
4,30933	-1576
4,32000	-1571
4,33067	-1566
4,34133	-1576
4,35200	-1570
4,36267	-1568
4,37333	-1562
4,38400	-1563
4,39467	-1562
4,40533	-1561
4,41600	-1559
4,42667	-1560
4,43733	-1562
4,44800	-1557
4,45867	-1555
4,46933	-1554
4,48000	-1559
4,49067	-1552
4,50133	-1552
4,51200	-1552
4,52267	-1554
4,53333	-1554
4,54400	-1553
4,55467	-1553
4,56533	-1555
4,57600	-1547
4,58667	-1547
4,59733	-1543
4,60800	-1545
4,61867	-1547
4,62933	-1546
4,64000	-1548
4,65067	-1546
4,66133	-1546
4,67200	-1544
4,68267	-1545
4,69333	-1547
4,70400	-1545
4,71467	-1545
4,72533	-1545
4,73600	-1545
4,74667	-1545
4,75733	-1546
4,76800	-1543
4,77867	-1537
4,78933	-1542
4,80000	-1540
4,81067	-1540
4,82133	-1543
4,83200	-1545
4,84267	-1546
4,85333	-1549
4,86400	-1547
4,87467	-1548
4,88533	-1545
4,89600	-1547
4,90667	-1548
4,91733	-1546
4,92800	-1544
4,93867	-1545
4,94933	-1549
4,96000	-1546
4,97067	-1544
4,98133	-1547
4,99200	-1538
5,00267	-1545
5,01333	-1548
5,02400	-1542
5,03467	-1543
5,04533	-1541
5,05600	-1544
5,06667	-1541
5,07733	-1541
5,08800	-1546
5,09867	-1547
5,10933	-1541
5,12000	-1538
5,13067	-1547
5,14133	-1547
5,15200	-1548
5,16267	-1543
5,17333	-1547
5,18400	-1547
5,19467	-1547
5,20533	-1547
5,21600	-1546
5,22667	-1544
5,23733	-1540
5,24800	-1545
5,25867	-1547
5,26933	-1545
5,28000	-1544
5,29067	-1542
5,30133	-1540
5,31200	-1537
5,32267	-1539
5,33333	-1542
5,34400	-1542
5,35467	-1545
5,36533	-1548
5,37600	-1548
5,38667	-1543
5,39733	-1547
5,40800	-1549
5,41867	-1549
5,42933	-1548
5,44000	-1545
5,45067	-1543
5,46133	-1540
5,47200	-1546
5,48267	-1549
5,49333	-1548
5,50400	-1552
5,51467	-1543
5,52533	-1541
5,53600	-1543
5,54667	-1543
5,55733	-1546
5,56800	-1545
5,57867	-1544
5,58933	-1543
5,60000	-1547
5,61067	-1544
5,62133	-1543
5,63200	-1543
5,64267	-1549
5,65333	-1546
5,66400	-1543
5,67467	-1547
5,68533	-1549
5,69600	-1547
5,70667	-1548
5,71733	-1545
5,72800	-1538
5,73867	-1540
5,74933	-1540
5,76000	-1541
5,77067	-1543
5,78133	-1543
5,79200	-1542
5,80267	-1541
5,81333	-1540
5,82400	-1540
5,83467	-1540
5,84533	-1540
5,85600	-1539
5,86667	-1540
5,87733	-1537
5,88800	-1533
5,89867	-1537
5,90933	-1539
5,92000	-1536
5,93067	-1536
5,94133	-1526
5,95200	-1528
5,96267	-1534
5,97333	-1535
5,98400	-1530
5,99467	-1532
6,00533	-1533
6,01600	-1537
6,02667	-1531
6,03733	-1530
6,04800	-1528
6,05867	-1526
6,06933	-1530
6,08000	-1528
6,09067	-1523
6,10133	-1525
6,11200	-1528
6,12267	-1528
6,13333	-1526
6,14400	-1527
6,15467	-1526
6,16533	-1525
6,17600	-1528
6,18667	-1532
6,19733	-1529
6,20800	-1527
6,21867	-1524
6,22933	-1523
6,24000	-1526
6,25067	-1527
6,26133	-1526
6,27200	-1527
6,28267	-1523
6,29333	-1531
6,30400	-1534
6,31467	-1531
6,32533	-1534
6,33600	-1535
6,34667	-1534
6,35733	-1538
6,36800	-1536
6,37867	-1530
6,38933	-1529
6,40000	-1531
6,41067	-1534
6,42133	-1537
6,43200	-1535
6,44267	-1525
6,45333	-1524
6,46400	-1528
6,47467	-1531
6,48533	-1527
6,49600	-1529
6,50667	-1535
6,51733	-1534
6,52800	-1533
6,53867	-1535
6,54933	-1527
6,56000	-1528
6,57067	-1530
6,58133	-1529
6,59200	-1530
6,60267	-1525
6,61333	-1522
6,62400	-1527
6,63467	-1526
6,64533	-1528
6,65600	-1532
6,66667	-1530
6,67733	-1525
6,68800	-1534
6,69867	-1530
6,70933	-1525
6,72000	-1526
6,73067	-1525
6,74133	-1523
6,75200	-1522
6,76267	-1523
6,77333	-1521
6,78400	-1522
6,79467	-1525
6,80533	-1524
6,81600	-1529
6,82667	-1525
6,83733	-1524
6,84800	-1526
6,85867	-1524
6,86933	-1525
6,88000	-1525
6,89067	-1529
6,90133	-1523
6,91200	-1522
6,92267	-1530
6,93333	-1526
6,94400	-1526
6,95467	-1525
6,96533	-1523
6,97600	-1523
6,98667	-1523
6,99733	-1522
7,00800	-1521
7,01867	-1522
7,02933	-1514
7,04000	-1515
7,05067	-1513
7,06133	-1516
7,07200	-1521
7,08267	-1516
7,09333	-1517
7,10400	-1517
7,11467	-1513
7,12533	-1512
7,13600	-1510
7,14667	-1507
7,15733	-1508
7,16800	-1508
7,17867	-1503
7,18933	-1503
7,20000	-1503
7,21067	-1505
7,22133	-1502
7,23200	-1501
7,24267	-1502
7,25333	-1501
7,26400	-1505
7,27467	-1503
7,28533	-1503
7,29600	-1500
7,30667	-1504
7,31733	-1498
7,32800	-1498
7,33867	-1498
7,34933	-1499
7,36000	-1498
7,37067	-1500
7,38133	-1498
7,39200	-1497
7,40267	-1490
7,41333	-1492
7,42400	-1494
7,43467	-1497
7,44533	-1496
7,45600	-1493
7,46667	-1487
7,47733	-1492
7,48800	-1491
7,49867	-1488
7,50933	-1482
7,52000	-1480
7,53067	-1480
7,54133	-1475
7,55200	-1478
7,56267	-1474
7,57333	-1473
7,58400	-1473
7,59467	-1478
7,60533	-1475
7,61600	-1475
7,62667	-1474
7,63733	-1470
7,64800	-1468
7,65867	-1468
7,66933	-1467
7,68000	-1463
7,69067	-1468
7,70133	-1468
7,71200	-1461
7,72267	-1461
7,73333	-1459
7,74400	-1460
7,75467	-1456
7,76533	-1456
7,77600	-1452
7,78667	-1454
7,79733	-1452
7,80800	-1454
7,81867	-1451
7,82933	-1446
7,84000	-1447
7,85067	-1447
7,86133	-1442
7,87200	-1439
7,88267	-1440
7,89333	-1436
7,90400	-1437
7,91467	-1432
7,92533	-1431
7,93600	-1430
7,94667	-1426
7,95733	-1423
7,96800	-1423
7,97867	-1421
7,98933	-1419
8,00000	-1419
8,01067	-1414
8,02133	-1411
8,03200	-1408
8,04267	-1409
8,05333	-1409
8,06400	-1407
8,07467	-1406
8,08533	-1406
8,09600	-1401
8,10667	-1402
8,11733	-1395
8,12800	-1396
8,13867	-1392
8,14933	-1398
8,16000	-1394
8,17067	-1393
8,18133	-1391
8,19200	-1386
8,20267	-1385
8,21333	-1384
8,22400	-1383
8,23467	-1382
8,24533	-1383
8,25600	-1378
8,26667	-1374
8,27733	-1375
8,28800	-1375
8,29867	-1373
8,30933	-1371
8,32000	-1368
8,33067	-1373
8,34133	-1373
8,35200	-1372
8,36267	-1370
8,37333	-1366
8,38400	-1368
8,39467	-1367
8,40533	-1364
8,41600	-1361
8,42667	-1363
8,43733	-1367
8,44800	-1367
8,45867	-1367
8,46933	-1366
8,48000	-1360
8,49067	-1361
8,50133	-1364
8,51200	-1369
8,52267	-1366
8,53333	-1367
8,54400	-1369
8,55467	-1366
8,56533	-1369
8,57600	-1373
8,58667	-1372
8,59733	-1372
8,60800	-1372
8,61867	-1371
8,62933	-1377
8,64000	-1375
8,65067	-1376
8,66133	-1376
8,67200	-1379
8,68267	-1380
8,69333	-1379
8,70400	-1382
8,71467	-1385
8,72533	-1385
8,73600	-1388
8,74667	-1389
8,75733	-1390
8,76800	-1394
8,77867	-1404
8,78933	-1401
8,80000	-1404
8,81067	-1402
8,82133	-1410
8,83200	-1404
8,84267	-1404
8,85333	-1411
8,86400	-1413
8,87467	-1414
8,88533	-1413
8,89600	-1415
8,90667	-1417
8,91733	-1416
8,92800	-1417
8,93867	-1427
8,94933	-1425
8,96000	-1424
8,97067	-1429
8,98133	-1432
8,99200	-1428
9,00267	-1438
9,01333	-1443
9,02400	-1443
9,03467	-1446
9,04533	-1442
9,05600	-1449
9,06667	-1450
9,07733	-1450
9,08800	-1450
9,09867	-1454
9,10933	-1458
9,12000	-1457
9,13067	-1456
9,14133	-1456
9,15200	-1463
9,16267	-1464
9,17333	-1468
9,18400	-1472
9,19467	-1473
9,20533	-1474
9,21600	-1474
9,22667	-1473
9,23733	-1479
9,24800	-1482
9,25867	-1490
9,26933	-1489
9,28000	-1493
9,29067	-1492
9,30133	-1497
9,31200	-1501
9,32267	-1502
9,33333	-1502
9,34400	-1499
9,35467	-1506
9,36533	-1505
9,37600	-1514
9,38667	-1512
9,39733	-1517
9,40800	-1514
9,41867	-1522
9,42933	-1525
9,44000	-1526
9,45067	-1528
9,46133	-1524
9,47200	-1528
9,48267	-1532
9,49333	-1533
9,50400	-1540
9,51467	-1545
9,52533	-1542
9,53600	-1548
9,54667	-1552
9,55733	-1547
9,56800	-1552
9,57867	-1552
9,58933	-1559
9,60000	-1557
9,61067	-1562
9,62133	-1564
9,63200	-1569
9,64267	-1570
9,65333	-1564
9,66400	-1560
9,67467	-1570
9,68533	-1571
9,69600	-1570
9,70667	-1575
9,71733	-1579
9,72800	-1579
9,73867	-1577
9,74933	-1581
9,76000	-1582
9,77067	-1589
9,78133	-1586
9,79200	-1584
9,80267	-1587
9,81333	-1590
9,82400	-1587
9,83467	-1587
9,84533	-1596
9,85600	-1588
9,86667	-1582
9,87733	-1575
9,88800	-1567
9,89867	-1553
9,90933	-1539
9,92000	-1526
9,93067	-1512
9,94133	-1491
9,95200	-1487
9,96267	-1483
9,97333	-1481
9,98400	-1489
9,99467	-1500
10,00533	-1507
10,01600	-1518
10,02667	-1521
10,03733	-1530
10,04800	-1538
10,05867	-1542
10,06933	-1546
10,08000	-1550
10,09067	-1547
10,10133	-1541
10,11200	-1532
10,12267	-1512
10,13333	-1493
10,14400	-1473
10,15467	-1446
10,16533	-1427
10,17600	-1410
10,18667	-1405
10,19733	-1415
10,20800	-1441
10,21867	-1479
10,22933	-1521
10,24000	-1560
10,25067	-1594
10,26133	-1618
10,27200	-1642
10,28267	-1658
10,29333	-1667
10,30400	-1678
10,31467	-1685
10,32533	-1690
10,33600	-1693
10,34667	-1696
10,35733	-1697
10,36800	-1702
10,37867	-1704
10,38933	-1707
10,40000	-1712
10,41067	-1717
10,42133	-1719
10,43200	-1723
10,44267	-1721
10,45333	-1722
10,46400	-1727
10,47467	-1725
10,48533	-1727
10,49600	-1732
10,50667	-1736
10,51733	-1738
10,52800	-1738
10,53867	-1731
10,54933	-1736
10,56000	-1738
10,57067	-1738
10,58133	-1737
10,59200	-1729
10,60267	-1727
10,61333	-1725
10,62400	-1719
10,63467	-1720
10,64533	-1715
10,65600	-1703
10,66667	-1699
10,67733	-1690
10,68800	-1681
10,69867	-1675
10,70933	-1669
10,72000	-1657
10,73067	-1652
10,74133	-1653
10,75200	-1654
10,76267	-1657
10,77333	-1665
10,78400	-1676
10,79467	-1686
10,80533	-1694
10,81600	-1709
10,82667	-1722
10,83733	-1729
10,84800	-1737
10,85867	-1743
10,86933	-1756
10,88000	-1760
10,89067	-1769
10,90133	-1780
10,91200	-1786
10,92267	-1786
10,93333	-1795
10,94400	-1794
10,95467	-1797
10,96533	-1798
10,97600	-1792
10,98667	-1794
10,99733	-1794
11,00800	-1792
11,01867	-1790
11,02933	-1795
11,04000	-1797
11,05067	-1802
11,06133	-1806
11,07200	-1813
11,08267	-1813
11,09333	-1815
11,10400	-1818
11,11467	-1821
11,12533	-1825
11,13600	-1829
11,14667	-1827
11,15733	-1829
11,16800	-1834
11,17867	-1831
11,18933	-1841
11,20000	-1841
11,21067	-1844
11,22133	-1849
11,23200	-1853
11,24267	-1855
11,25333	-1858
11,26400	-1863
11,27467	-1861
11,28533	-1862
11,29600	-1865
11,30667	-1871
11,31733	-1872
11,32800	-1879
11,33867	-1883
11,34933	-1880
11,36000	-1878
11,37067	-1878
11,38133	-1881
11,39200	-1880
11,40267	-1884
11,41333	-1884
11,42400	-1888
11,43467	-1889
11,44533	-1894
11,45600	-1891
11,46667	-1890
11,47733	-1891
11,48800	-1896
11,49867	-1898
11,50933	-1907
11,52000	-1905
11,53067	-1909
11,54133	-1910
11,55200	-1914
11,56267	-1917
11,57333	-1923
11,58400	-1921
11,59467	-1927
11,60533	-1929
11,61600	-1929
11,62667	-1930
11,63733	-1935
11,64800	-1932
11,65867	-1938
11,66933	-1943
11,68000	-1945
11,69067	-1944
11,70133	-1948
11,71200	-1948
11,72267	-1950
11,73333	-1944
11,74400	-1948
11,75467	-1949
11,76533	-1948
11,77600	-1946
11,78667	-1943
11,79733	-1945
11,80800	-1945
11,81867	-1951
11,82933	-1950
11,84000	-1948
11,85067	-1948
11,86133	-1950
11,87200	-1951
11,88267	-1963
11,89333	-1959
11,90400	-1966
11,91467	-1971
11,92533	-1972
11,93600	-1977
11,94667	-1977
11,95733	-1981
11,96800	-1980
11,97867	-1984
11,98933	-1978
12,00000	-1981
12,01067	-1985
12,02133	-1985
12,03200	-1989
12,04267	-1995
12,05333	-1995
12,06400	-1998
12,07467	-2001
12,08533	-2006
12,09600	-2000
12,10667	-1999
12,11733	-1997
12,12800	-1989
12,13867	-1990
12,14933	-1997
12,16000	-1996
12,17067	-1991
12,18133	-1991
12,19200	-1992
12,20267	-1992
12,21333	-1990
12,22400	-1987
12,23467	-1989
12,24533	-1991
12,25600	-1986
12,26667	-1982
12,27733	-1981
12,28800	-1980
12,29867	-1984
12,30933	-1985
12,32000	-1980
12,33067	-1976
12,34133	-1978
12,35200	-1976
12,36267	-1974
12,37333	-1974
12,38400	-1974
12,39467	-1972
12,40533	-1972
12,41600	-1971
12,42667	-1965
12,43733	-1962
12,44800	-1956
12,45867	-1945
12,46933	-1929
12,48000	-1913
12,49067	-1891
12,50133	-1862
12,51200	-1840
12,52267	-1819
12,53333	-1811
12,54400	-1809
12,55467	-1815
12,56533	-1827
12,57600	-1846
12,58667	-1865
12,59733	-1887
12,60800	-1901
12,61867	-1913
12,62933	-1925
12,64000	-1936
12,65067	-1946
12,66133	-1958
12,67200	-1964
12,68267	-1975
12,69333	-1980
12,70400	-1987
12,71467	-1997
12,72533	-1998
12,73600	-2003
12,74667	-2002
12,75733	-2005
12,76800	-2003
12,77867	-2004
12,78933	-1996
12,80000	-1989
12,81067	-1971
12,82133	-1953
12,83200	-1935
12,84267	-1909
12,85333	-1889
12,86400	-1871
12,87467	-1848
12,88533	-1832
12,89600	-1824
12,90667	-1827
12,91733	-1827
12,92800	-1844
12,93867	-1868
12,94933	-1884
12,96000	-1906
12,97067	-1925
12,98133	-1941
12,99200	-1954
13,00267	-1965
13,01333	-1973
13,02400	-1982
13,03467	-1991
13,04533	-2001
13,05600	-2009
13,06667	-2024
13,07733	-2027
13,08800	-2028
13,09867	-2030
13,10933	-2031
13,12000	-2034
13,13067	-2039
13,14133	-2040
13,15200	-2039
13,16267	-2037
13,17333	-2028
13,18400	-2035
13,19467	-2028
13,20533	-2024
13,21600	-2023
13,22667	-2029
13,23733	-2030
13,24800	-2034
13,25867	-2034
13,26933	-2036
13,28000	-2025
13,29067	-2009
13,30133	-1984
13,31200	-1937
13,32267	-1863
13,33333	-1765
13,34400	-1650
13,35467	-1529
13,36533	-1416
13,37600	-1325
13,38667	-1268
13,39733	-1255
13,40800	-1297
13,41867	-1378
13,42933	-1482
13,44000	-1587
13,45067	-1686
13,46133	-1771
13,47200	-1839
13,48267	-1898
13,49333	-1940
13,50400	-1972
13,51467	-1997
13,52533	-2014
13,53600	-2029
13,54667	-2035
13,55733	-2042
13,56800	-2044
13,57867	-2047
13,58933	-2043
13,60000	-2036
13,61067	-2031
13,62133	-2026
13,63200	-2015
13,64267	-2004
13,65333	-1991
13,66400	-1974
13,67467	-1963
13,68533	-1956
13,69600	-1958
13,70667	-1962
13,71733	-1973
13,72800	-1987
13,73867	-2001
13,74933	-2016
13,76000	-2023
13,77067	-2032
13,78133	-2034
13,79200	-2036
13,80267	-2039
13,81333	-2041
13,82400	-2039
13,83467	-2037
13,84533	-2035
13,85600	-2031
13,86667	-2026
13,87733	-2027
13,88800	-2024
13,89867	-2022
13,90933	-2024
13,92000	-2025
13,93067	-2030
13,94133	-2037
13,95200	-2045
13,96267	-2047
13,97333	-2048
13,98400	-2052
13,99467	-2050
14,00533	-2052
14,01600	-2053
14,02667	-2052
14,03733	-2052
14,04800	-2054
14,05867	-2050
14,06933	-2049
14,08000	-2051
14,09067	-2044
14,10133	-2039
14,11200	-2039
14,12267	-2035
14,13333	-2030
14,14400	-2030
14,15467	-2020
14,16533	-2016
14,17600	-2014
14,18667	-2010
14,19733	-2005
14,20800	-2001
14,21867	-1984
14,22933	-1977
14,24000	-1966
14,25067	-1960
14,26133	-1956
14,27200	-1949
14,28267	-1941
14,29333	-1935
14,30400	-1929
14,31467	-1930
14,32533	-1924
14,33600	-1918
14,34667	-1907
14,35733	-1895
14,36800	-1882
14,37867	-1866
14,38933	-1853
14,40000	-1826
14,41067	-1801
14,42133	-1766
14,43200	-1733
14,44267	-1697
14,45333	-1666
14,46400	-1632
14,47467	-1596
14,48533	-1568
14,49600	-1552
14,50667	-1548
14,51733	-1552
14,52800	-1566
14,53867	-1586
14,54933	-1607
14,56000	-1622
14,57067	-1637
14,58133	-1647
14,59200	-1655
14,60267	-1657
14,61333	-1653
14,62400	-1654
14,63467	-1651
14,64533	-1648
14,65600	-1643
14,66667	-1635
14,67733	-1619
14,68800	-1581
14,69867	-1530
14,70933	-1453
14,72000	-1355
14,73067	-1238
14,74133	-1098
14,75200	-953
14,76267	-803
14,77333	-663
14,78400	-533
14,79467	-408
14,80533	-247
14,81600	41
14,82667	652
14,83733	1894
14,84800	4032
14,85867	7121
14,86933	11046
14,88000	15376
14,89067	19774
14,90133	23778
14,91200	26753
14,92267	28026
14,93333	27302
14,94400	24784
14,95467	21151
14,96533	17214
14,97600	13547
14,98667	10452
14,99733	8029
15,00800	6248
15,01867	5032
15,02933	4394
15,04000	4399
15,05067	5132
15,06133	6838
15,07200	10369
15,08267	18420
15,09333	36420
15,10400	70491
15,11467	122304
15,12533	189449
15,13600	269272
15,14667	356607
15,15733	441263
15,16800	510995
15,17867	555842
15,18933	572107
15,20000	562967
15,21067	533813
15,22133	490432
15,23200	438954
15,24267	383671
15,25333	327605
15,26400	273873
15,27467	224901
15,28533	181717
15,29600	144720
15,30667	114136
15,31733	89423
15,32800	69610
15,33867	53945
15,34933	41713
15,36000	32174
15,37067	24772
15,38133	19115
15,39200	14837
15,40267	11623
15,41333	9247
15,42400	7571
15,43467	6437
15,44533	5770
15,45600	5524
15,46667	5647
15,47733	6090
15,48800	6783
15,49867	7622
15,50933	8517
15,52000	9384
15,53067	10061
15,54133	10379
15,55200	10246
15,56267	9672
15,57333	8811
15,58400	7875
15,59467	7037
15,60533	6407
15,61600	6011
15,62667	5788
15,63733	5686
15,64800	5676
15,65867	5737
15,66933	5852
15,68000	5997
15,69067	6136
15,70133	6241
15,71200	6298
15,72267	6272
15,73333	6138
15,74400	5881
15,75467	5551
15,76533	5245
15,77600	5105
15,78667	5258
15,79733	5751
15,80800	6552
15,81867	7587
15,82933	8764
15,84000	9930
15,85067	10931
15,86133	11609
15,87200	11864
15,88267	11688
15,89333	11182
15,90400	10472
15,91467	9670
15,92533	8844
15,93600	8008
15,94667	7190
15,95733	6425
15,96800	5756
15,97867	5207
15,98933	4787
16,00000	4514
16,01067	4368
16,02133	4311
16,03200	4289
16,04267	4229
16,05333	4051
16,06400	3728
16,07467	3279
16,08533	2762
16,09600	2255
16,10667	1812
16,11733	1457
16,12800	1193
16,13867	1000
16,14933	870
16,16000	797
16,17067	749
16,18133	716
16,19200	677
16,20267	627
16,21333	625
16,22400	766
16,23467	1153
16,24533	1881
16,25600	2925
16,26667	4214
16,27733	5667
16,28800	7199
16,29867	8667
16,30933	9834
16,32000	10479
16,33067	10430
16,34133	9724
16,35200	8546
16,36267	7135
16,37333	5710
16,38400	4415
16,39467	3301
16,40533	2378
16,41600	1640
16,42667	1046
16,43733	566
16,44800	178
16,45867	-127
16,46933	-365
16,48000	-542
16,49067	-658
16,50133	-731
16,51200	-772
16,52267	-790
16,53333	-794
16,54400	-794
16,55467	-796
16,56533	-807
16,57600	-836
16,58667	-867
16,59733	-906
16,60800	-938
16,61867	-952
16,62933	-941
16,64000	-913
16,65067	-882
16,66133	-852
16,67200	-826
16,68267	-813
16,69333	-821
16,70400	-847
16,71467	-900
16,72533	-984
16,73600	-1087
16,74667	-1201
16,75733	-1321
16,76800	-1432
16,77867	-1525
16,78933	-1607
16,80000	-1675
16,81067	-1734
16,82133	-1786
16,83200	-1826
16,84267	-1856
16,85333	-1885
16,86400	-1901
16,87467	-1911
16,88533	-1928
16,89600	-1936
16,90667	-1944
16,91733	-1949
16,92800	-1951
16,93867	-1955
16,94933	-1954
16,96000	-1951
16,97067	-1952
16,98133	-1952
16,99200	-1947
17,00267	-1947
17,01333	-1950
17,02400	-1952
17,03467	-1955
17,04533	-1963
17,05600	-1971
17,06667	-1978
17,07733	-1979
17,08800	-1996
17,09867	-1999
17,10933	-2006
17,12000	-2008
17,13067	-2010
17,14133	-2010
17,15200	-2021
17,16267	-2014
17,17333	-2010
17,18400	-2014
17,19467	-2013
17,20533	-2014
17,21600	-2019
17,22667	-2020
17,23733	-2021
17,24800	-2020
17,25867	-2017
17,26933	-2007
17,28000	-1994
17,29067	-1978
17,30133	-1961
17,31200	-1944
17,32267	-1924
17,33333	-1907
17,34400	-1895
17,35467	-1889
17,36533	-1892
17,37600	-1904
17,38667	-1923
17,39733	-1954
17,40800	-1977
17,41867	-2001
17,42933	-2026
17,44000	-2034
17,45067	-2044
17,46133	-2056
17,47200	-2061
17,48267	-2068
17,49333	-2065
17,50400	-2068
17,51467	-2066
17,52533	-2063
17,53600	-2062
17,54667	-2058
17,55733	-2053
17,56800	-2055
17,57867	-2055
17,58933	-2050
17,60000	-2040
17,61067	-2039
17,62133	-2030
17,63200	-2024
17,64267	-2018
17,65333	-2005
17,66400	-1990
17,67467	-1978
17,68533	-1965
17,69600	-1951
17,70667	-1949
17,71733	-1941
17,72800	-1935
17,73867	-1932
17,74933	-1940
17,76000	-1943
17,77067	-1952
17,78133	-1952
17,79200	-1955
17,80267	-1963
17,81333	-1971
17,82400	-1974
17,83467	-1976
17,84533	-1980
17,85600	-1982
17,86667	-1982
17,87733	-1983
17,88800	-1981
17,89867	-1979
17,90933	-1974
17,92000	-1979
17,93067	-1977
17,94133	-1977
17,95200	-1979
17,96267	-1983
17,97333	-1988
17,98400	-1991
17,99467	-2002
18,00533	-2011
18,01600	-2024
18,02667	-2025
18,03733	-2024
18,04800	-2016
18,05867	-2003
18,06933	-1988
18,08000	-1973
18,09067	-1948
18,10133	-1926
18,11200	-1905
18,12267	-1878
18,13333	-1854
18,14400	-1829
18,15467	-1811
18,16533	-1805
18,17600	-1809
18,18667	-1824
18,19733	-1849
18,20800	-1886
18,21867	-1930
18,22933	-1966
18,24000	-1998
18,25067	-2028
18,26133	-2048
18,27200	-2067
18,28267	-2077
18,29333	-2086
18,30400	-2098
18,31467	-2103
18,32533	-2108
18,33600	-2117
18,34667	-2119
18,35733	-2122
18,36800	-2125
18,37867	-2129
18,38933	-2129
18,40000	-2128
18,41067	-2126
18,42133	-2126
18,43200	-2125
18,44267	-2117
18,45333	-2110
18,46400	-2100
18,47467	-2089
18,48533	-2078
18,49600	-2064
18,50667	-2055
18,51733	-2047
18,52800	-2039
18,53867	-2035
18,54933	-2043
18,56000	-2043
18,57067	-2052
18,58133	-2063
18,59200	-2071
18,60267	-2076
18,61333	-2075
18,62400	-2082
18,63467	-2087
18,64533	-2079
18,65600	-2078
18,66667	-2082
18,67733	-2080
18,68800	-2076
18,69867	-2077
18,70933	-2075
18,72000	-2072
18,73067	-2072
18,74133	-2073
18,75200	-2080
18,76267	-2076
18,77333	-2082
18,78400	-2085
18,79467	-2087
18,80533	-2089
18,81600	-2094
18,82667	-2098
18,83733	-2097
18,84800	-2099
18,85867	-2097
18,86933	-2101
18,88000	-2109
18,89067	-2106
18,90133	-2103
18,91200	-2106
18,92267	-2108
18,93333	-2107
18,94400	-2114
18,95467	-2113
18,96533	-2115
18,97600	-2114
18,98667	-2112
18,99733	-2119
19,00800	-2118
19,01867	-2114
19,02933	-2112
19,04000	-2117
19,05067	-2115
19,06133	-2106
19,07200	-2085
19,08267	-2050
19,09333	-1999
19,10400	-1929
19,11467	-1833
19,12533	-1719
19,13600	-1584
19,14667	-1437
19,15733	-1287
19,16800	-1150
19,17867	-1028
19,18933	-944
19,20000	-905
19,21067	-922
19,22133	-977
19,23200	-1044
19,24267	-1120
19,25333	-1184
19,26400	-1236
19,27467	-1254
19,28533	-1256
19,29600	-1243
19,30667	-1220
19,31733	-1194
19,32800	-1173
19,33867	-1163
19,34933	-1178
19,36000	-1200
19,37067	-1236
19,38133	-1289
19,39200	-1348
19,40267	-1418
19,41333	-1476
19,42400	-1537
19,43467	-1592
19,44533	-1643
19,45600	-1688
19,46667	-1723
19,47733	-1752
19,48800	-1778
19,49867	-1807
19,50933	-1830
19,52000	-1845
19,53067	-1859
19,54133	-1875
19,55200	-1888
19,56267	-1906
19,57333	-1914
19,58400	-1926
19,59467	-1927
19,60533	-1936
19,61600	-1949
19,62667	-1953
19,63733	-1957
19,64800	-1962
19,65867	-1966
19,66933	-1974
19,68000	-1980
19,69067	-1982
19,70133	-1987
19,71200	-1985
19,72267	-1987
19,73333	-1990
19,74400	-1993
19,75467	-1987
19,76533	-1990
19,77600	-1993
19,78667	-1998
19,79733	-2006
19,80800	-2002
19,81867	-2005
19,82933	-1994
19,84000	-1972
19,85067	-1992
19,86133	-1996
19,87200	-1998
19,88267	-2001
19,89333	-1995
19,90400	-1990
19,91467	-1992
19,92533	-1985
19,93600	-1970
19,94667	-1967
19,95733	-1981
19,96800	-1988
19,97867	-1993
19,98933	-2000
20,00000	-2004
20,01067	-2009
20,02133	-2007
20,03200	-2008
20,04267	-2012
20,05333	-2016
20,06400	-2020
20,07467	-2013
20,08533	-2015
20,09600	-2004
20,10667	-2000
20,11733	-1999
20,12800	-1997
20,13867	-1992
20,14933	-1997
20,16000	-2003
20,17067	-1999
20,18133	-1997
20,19200	-1993
20,20267	-2002
20,21333	-2003
20,22400	-2004
20,23467	-2008
20,24533	-2007
20,25600	-2007
20,26667	-2008
20,27733	-2006
20,28800	-2010
20,29867	-2010
20,30933	-2007
20,32000	-2007
20,33067	-2003
20,34133	-2001
20,35200	-2003
20,36267	-2002
20,37333	-2002
20,38400	-2001
20,39467	-2002
20,40533	-2001
20,41600	-1999
20,42667	-1997
20,43733	-1990
20,44800	-1989
20,45867	-1986
20,46933	-1987
20,48000	-1987
20,49067	-1981
20,50133	-1981
20,51200	-1979
20,52267	-1971
20,53333	-1972
20,54400	-1972
20,55467	-1966
20,56533	-1968
20,57600	-1969
20,58667	-1967
20,59733	-1963
20,60800	-1972
20,61867	-1972
20,62933	-1974
20,64000	-1977
20,65067	-1978
20,66133	-1978
20,67200	-1978
20,68267	-1980
20,69333	-1977
20,70400	-1977
20,71467	-1977
20,72533	-1971
20,73600	-1978
20,74667	-1979
20,75733	-1977
20,76800	-1976
20,77867	-1978
20,78933	-1980
20,80000	-1979
20,81067	-1979
20,82133	-1977
20,83200	-1974
20,84267	-1973
20,85333	-1970
20,86400	-1963
20,87467	-1957
20,88533	-1956
20,89600	-1952
20,90667	-1948
20,91733	-1940
20,92800	-1933
20,93867	-1928
20,94933	-1926
20,96000	-1920
20,97067	-1913
20,98133	-1906
20,99200	-1902
21,00267	-1898
21,01333	-1895
21,02400	-1885
21,03467	-1880
21,04533	-1875
21,05600	-1868
21,06667	-1873
21,07733	-1871
21,08800	-1873
21,09867	-1872
21,10933	-1877
21,12000	-1880
21,13067	-1877
21,14133	-1884
21,15200	-1881
21,16267	-1887
21,17333	-1890
21,18400	-1888
21,19467	-1890
21,20533	-1897
21,21600	-1894
21,22667	-1898
21,23733	-1906
21,24800	-1908
21,25867	-1912
21,26933	-1915
21,28000	-1908
21,29067	-1912
21,30133	-1908
21,31200	-1912
21,32267	-1906
21,33333	-1907
21,34400	-1909
21,35467	-1907
21,36533	-1901
21,37600	-1895
21,38667	-1893
21,39733	-1890
21,40800	-1886
21,41867	-1882
21,42933	-1878
21,44000	-1877
21,45067	-1874
21,46133	-1880
21,47200	-1881
21,48267	-1881
21,49333	-1880
21,50400	-1882
21,51467	-1881
21,52533	-1884
21,53600	-1884
21,54667	-1879
21,55733	-1878
21,56800	-1879
21,57867	-1877
21,58933	-1874
21,60000	-1870
21,61067	-1864
21,62133	-1863
21,63200	-1862
21,64267	-1858
21,65333	-1853
21,66400	-1847
21,67467	-1841
21,68533	-1838
21,69600	-1836
21,70667	-1832
21,71733	-1830
21,72800	-1824
21,73867	-1822
21,74933	-1817
21,76000	-1815
21,77067	-1811
21,78133	-1807
21,79200	-1807
21,80267	-1803
21,81333	-1801
21,82400	-1798
21,83467	-1799
21,84533	-1799
21,85600	-1793
21,86667	-1798
21,87733	-1798
21,88800	-1797
21,89867	-1795
21,90933	-1797
21,92000	-1793
21,93067	-1790
21,94133	-1790
21,95200	-1786
21,96267	-1784
21,97333	-1776
21,98400	-1776
21,99467	-1779
22,00533	-1787
22,01600	-1783
22,02667	-1786
22,03733	-1785
22,04800	-1787
22,05867	-1781
22,06933	-1784
22,08000	-1782
22,09067	-1781
22,10133	-1777
22,11200	-1774
22,12267	-1772
22,13333	-1763
22,14400	-1765
22,15467	-1762
22,16533	-1751
22,17600	-1757
22,18667	-1759
22,19733	-1764
22,20800	-1767
22,21867	-1778
22,22933	-1776
22,24000	-1779
22,25067	-1782
22,26133	-1782
22,27200	-1786
22,28267	-1789
22,29333	-1791
22,30400	-1793
22,31467	-1792
22,32533	-1788
22,33600	-1786
22,34667	-1785
22,35733	-1781
22,36800	-1778
22,37867	-1782
22,38933	-1781
22,40000	-1778
22,41067	-1778
22,42133	-1778
22,43200	-1775
22,44267	-1773
22,45333	-1774
22,46400	-1783
22,47467	-1780
22,48533	-1779
22,49600	-1777
22,50667	-1781
22,51733	-1775
22,52800	-1774
22,53867	-1769
22,54933	-1775
22,56000	-1774
22,57067	-1759
22,58133	-1753
22,59200	-1746
22,60267	-1737
22,61333	-1731
22,62400	-1723
22,63467	-1714
22,64533	-1703
22,65600	-1701
22,66667	-1695
22,67733	-1686
22,68800	-1680
22,69867	-1673
22,70933	-1672
22,72000	-1671
22,73067	-1676
22,74133	-1680
22,75200	-1679
22,76267	-1675
22,77333	-1672
22,78400	-1670
22,79467	-1672
22,80533	-1670
22,81600	-1660
22,82667	-1661
22,83733	-1655
22,84800	-1650
22,85867	-1646
22,86933	-1644
22,88000	-1644
22,89067	-1642
22,90133	-1646
22,91200	-1648
22,92267	-1646
22,93333	-1640
22,94400	-1643
22,95467	-1630
22,96533	-1623
22,97600	-1617
22,98667	-1609
22,99733	-1595
23,00800	-1584
23,01867	-1573
23,02933	-1562
23,04000	-1550
23,05067	-1536
23,06133	-1533
23,07200	-1532
23,08267	-1528
23,09333	-1527
23,10400	-1529
23,11467	-1529
23,12533	-1529
23,13600	-1524
23,14667	-1520
23,15733	-1519
23,16800	-1517
23,17867	-1516
23,18933	-1519
23,20000	-1522
23,21067	-1526
23,22133	-1532
23,23200	-1531
23,24267	-1535
23,25333	-1538
23,26400	-1541
23,27467	-1543
23,28533	-1546
23,29600	-1544
23,30667	-1543
23,31733	-1540
23,32800	-1543
23,33867	-1539
23,34933	-1538
23,36000	-1539
23,37067	-1540
23,38133	-1544
23,39200	-1541
23,40267	-1544
23,41333	-1545
23,42400	-1551
23,43467	-1554
23,44533	-1555
23,45600	-1559
23,46667	-1558
23,47733	-1558
23,48800	-1558
23,49867	-1554
23,50933	-1558
23,52000	-1560
23,53067	-1562
23,54133	-1564
23,55200	-1569
23,56267	-1573
23,57333	-1575
23,58400	-1575
23,59467	-1579
23,60533	-1585
23,61600	-1584
23,62667	-1584
23,63733	-1582
23,64800	-1577
23,65867	-1581
23,66933	-1579
23,68000	-1579
23,69067	-1582
23,70133	-1579
23,71200	-1570
23,72267	-1566
23,73333	-1567
23,74400	-1563
23,75467	-1553
23,76533	-1543
23,77600	-1544
23,78667	-1535
23,79733	-1530
23,80800	-1522
23,81867	-1512
23,82933	-1498
23,84000	-1490
23,85067	-1480
23,86133	-1476
23,87200	-1471
23,88267	-1470
23,89333	-1476
23,90400	-1479
23,91467	-1477
23,92533	-1487
23,93600	-1485
23,94667	-1493
23,95733	-1496
23,96800	-1500
23,97867	-1504
23,98933	-1506
24,00000	-1501
24,01067	-1503
24,02133	-1502
24,03200	-1501
24,04267	-1505
24,05333	-1503
24,06400	-1505
24,07467	-1508
24,08533	-1506
24,09600	-1505
24,10667	-1507
24,11733	-1504
24,12800	-1508
24,13867	-1511
24,14933	-1514
24,16000	-1513
24,17067	-1511
24,18133	-1509
24,19200	-1507
24,20267	-1505
24,21333	-1497
24,22400	-1498
24,23467	-1493
24,24533	-1492
24,25600	-1487
24,26667	-1480
24,27733	-1474
24,28800	-1468
24,29867	-1454
24,30933	-1447
24,32000	-1438
24,33067	-1427
24,34133	-1416
24,35200	-1398
24,36267	-1387
24,37333	-1373
24,38400	-1360
24,39467	-1346
24,40533	-1337
24,41600	-1325
24,42667	-1311
24,43733	-1299
24,44800	-1293
24,45867	-1280
24,46933	-1280
24,48000	-1278
24,49067	-1274
24,50133	-1271
24,51200	-1276
24,52267	-1273
24,53333	-1282
24,54400	-1283
24,55467	-1290
24,56533	-1293
24,57600	-1299
24,58667	-1304
24,59733	-1310
24,60800	-1313
24,61867	-1314
24,62933	-1317
24,64000	-1326
24,65067	-1327
24,66133	-1334
24,67200	-1341
24,68267	-1346
24,69333	-1355
24,70400	-1362
24,71467	-1366
24,72533	-1366
24,73600	-1367
24,74667	-1369
24,75733	-1371
24,76800	-1375
24,77867	-1373
24,78933	-1381
24,80000	-1376
24,81067	-1379
24,82133	-1378
24,83200	-1377
24,84267	-1378
24,85333	-1379
24,86400	-1382
24,87467	-1386
24,88533	-1384
24,89600	-1383
24,90667	-1381
24,91733	-1385
24,92800	-1386
24,93867	-1384
24,94933	-1387
24,96000	-1383
24,97067	-1390
24,98133	-1393
24,99200	-1390
25,00267	-1388
25,01333	-1386
25,02400	-1386
25,03467	-1389
25,04533	-1386
25,05600	-1390
25,06667	-1391
25,07733	-1388
25,08800	-1388
25,09867	-1382
25,10933	-1382
25,12000	-1382
25,13067	-1381
25,14133	-1377
25,15200	-1381
25,16267	-1377
25,17333	-1382
25,18400	-1377
25,19467	-1376
25,20533	-1375
25,21600	-1371
25,22667	-1373
25,23733	-1374
25,24800	-1379
25,25867	-1372
25,26933	-1366
25,28000	-1364
25,29067	-1356
25,30133	-1362
25,31200	-1358
25,32267	-1353
25,33333	-1351
25,34400	-1352
25,35467	-1351
25,36533	-1347
25,37600	-1344
25,38667	-1342
25,39733	-1336
25,40800	-1335
25,41867	-1330
25,42933	-1328
25,44000	-1317
25,45067	-1315
25,46133	-1318
25,47200	-1314
25,48267	-1312
25,49333	-1309
25,50400	-1306
25,51467	-1305
25,52533	-1304
25,53600	-1299
25,54667	-1297
25,55733	-1299
25,56800	-1296
25,57867	-1289
25,58933	-1287
25,60000	-1283
25,61067	-1283
25,62133	-1279
25,63200	-1282
25,64267	-1284
25,65333	-1283
25,66400	-1278
25,67467	-1280
25,68533	-1280
25,69600	-1277
25,70667	-1276
25,71733	-1284
25,72800	-1282
25,73867	-1282
25,74933	-1283
25,76000	-1283
25,77067	-1281
25,78133	-1279
25,79200	-1278
25,80267	-1274
25,81333	-1277
25,82400	-1276
25,83467	-1270
25,84533	-1271
25,85600	-1269
25,86667	-1274
25,87733	-1279
25,88800	-1273
25,89867	-1269
25,90933	-1266
25,92000	-1264
25,93067	-1262
25,94133	-1260
25,95200	-1258
25,96267	-1251
25,97333	-1252
25,98400	-1249
25,99467	-1241
26,00533	-1242
26,01600	-1232
26,02667	-1225
26,03733	-1216
26,04800	-1204
26,05867	-1187
26,06933	-1166
26,08000	-1142
26,09067	-1115
26,10133	-1082
26,11200	-1051
26,12267	-1020
26,13333	-990
26,14400	-952
26,15467	-913
26,16533	-881
26,17600	-841
26,18667	-812
26,19733	-786
26,20800	-768
26,21867	-751
26,22933	-746
26,24000	-759
26,25067	-777
26,26133	-799
26,27200	-831
26,28267	-867
26,29333	-896
26,30400	-928
26,31467	-952
26,32533	-972
26,33600	-988
26,34667	-1003
26,35733	-1012
26,36800	-1019
26,37867	-1030
26,38933	-1039
26,40000	-1045
26,41067	-1051
26,42133	-1054
26,43200	-1060
26,44267	-1066
26,45333	-1071
26,46400	-1074
26,47467	-1079
26,48533	-1079
26,49600	-1067
26,50667	-1069
26,51733	-1072
26,52800	-1074
26,53867	-1069
26,54933	-1062
26,56000	-1056
26,57067	-1053
26,58133	-1051
26,59200	-1056
26,60267	-1057
26,61333	-1053
26,62400	-1048
26,63467	-1046
26,64533	-1048
26,65600	-1050
26,66667	-1051
26,67733	-1045
26,68800	-1046
26,69867	-1036
26,70933	-1041
26,72000	-1042
26,73067	-1045
26,74133	-1046
26,75200	-1046
26,76267	-1048
26,77333	-1050
26,78400	-1044
26,79467	-1042
26,80533	-1047
26,81600	-1047
26,82667	-1043
26,83733	-1043
26,84800	-1041
26,85867	-1037
26,86933	-1035
26,88000	-1040
26,89067	-1036
26,90133	-1038
26,91200	-1037
26,92267	-1036
26,93333	-1028
26,94400	-1028
26,95467	-1031
26,96533	-1034
26,97600	-1031
26,98667	-1030
26,99733	-1024
27,00800	-1028
27,01867	-1023
27,02933	-1021
27,04000	-1021
27,05067	-1014
27,06133	-1018
27,07200	-1013
27,08267	-1014
27,09333	-1010
27,10400	-1008
27,11467	-1011
27,12533	-1007
27,13600	-1006
27,14667	-1005
27,15733	-997
27,16800	-997
27,17867	-993
27,18933	-991
27,20000	-992
27,21067	-992
27,22133	-990
27,23200	-984
27,24267	-984
27,25333	-985
27,26400	-982
27,27467	-979
27,28533	-978
27,29600	-979
27,30667	-974
27,31733	-981
27,32800	-975
27,33867	-973
27,34933	-969
27,36000	-965
27,37067	-965
27,38133	-963
27,39200	-952
27,40267	-946
27,41333	-935
27,42400	-924
27,43467	-914
27,44533	-894
27,45600	-875
27,46667	-852
27,47733	-827
27,48800	-805
27,49867	-777
27,50933	-747
27,52000	-722
27,53067	-694
27,54133	-670
27,55200	-650
27,56267	-629
27,57333	-612
27,58400	-603
27,59467	-599
27,60533	-607
27,61600	-613
27,62667	-627
27,63733	-650
27,64800	-670
27,65867	-687
27,66933	-710
27,68000	-721
27,69067	-734
27,70133	-741
27,71200	-750
27,72267	-754
27,73333	-753
27,74400	-756
27,75467	-756
27,76533	-757
27,77600	-758
27,78667	-763
27,79733	-754
27,80800	-749
27,81867	-751
27,82933	-746
27,84000	-739
27,85067	-738
27,86133	-731
27,87200	-726
27,88267	-727
27,89333	-721
27,90400	-722
27,91467	-728
27,92533	-731
27,93600	-732
27,94667	-739
27,95733	-745
27,96800	-751
27,97867	-753
27,98933	-756
28,00000	-761
28,01067	-773
28,02133	-779
28,03200	-778
28,04267	-777
28,05333	-783
28,06400	-794
28,07467	-794
28,08533	-793
28,09600	-792
28,10667	-791
28,11733	-788
28,12800	-784
28,13867	-784
28,14933	-786
28,16000	-787
28,17067	-787
28,18133	-789
28,19200	-788
28,20267	-789
28,21333	-776
28,22400	-751
28,23467	-771
28,24533	-778
28,25600	-786
28,26667	-781
28,27733	-780
28,28800	-780
28,29867	-786
28,30933	-779
28,32000	-778
28,33067	-774
28,34133	-781
28,35200	-776
28,36267	-775
28,37333	-774
28,38400	-779
28,39467	-775
28,40533	-768
28,41600	-769
28,42667	-769
28,43733	-772
28,44800	-768
28,45867	-766
28,46933	-766
28,48000	-771
28,49067	-770
28,50133	-760
28,51200	-762
28,52267	-762
28,53333	-768
28,54400	-759
28,55467	-757
28,56533	-755
28,57600	-757
28,58667	-753
28,59733	-750
28,60800	-754
28,61867	-757
28,62933	-753
28,64000	-740
28,65067	-738
28,66133	-739
28,67200	-745
28,68267	-742
28,69333	-743
28,70400	-741
28,71467	-745
28,72533	-743
28,73600	-731
28,74667	-730
28,75733	-736
28,76800	-739
28,77867	-725
28,78933	-728
28,80000	-729
28,81067	-735
28,82133	-731
28,83200	-721
28,84267	-728
28,85333	-727
28,86400	-732
28,87467	-723
28,88533	-723
28,89600	-717
28,90667	-723
28,91733	-719
28,92800	-710
28,93867	-710
28,94933	-714
28,96000	-717
28,97067	-712
28,98133	-709
28,99200	-708
29,00267	-712
29,01333	-708
29,02400	-703
29,03467	-707
29,04533	-706
29,05600	-709
29,06667	-699
29,07733	-699
29,08800	-706
29,09867	-709
29,10933	-695
29,12000	-694
29,13067	-696
29,14133	-697
29,15200	-691
29,16267	-682
29,17333	-679
29,18400	-684
29,19467	-686
29,20533	-681
29,21600	-675
29,22667	-672
29,23733	-679
29,24800	-670
29,25867	-667
29,26933	-668
29,28000	-673
29,29067	-675
29,30133	-668
29,31200	-664
29,32267	-663
29,33333	-660
29,34400	-651
29,35467	-647
29,36533	-641
29,37600	-632
29,38667	-614
29,39733	-591
29,40800	-566
29,41867	-531
29,42933	-489
29,44000	-429
29,45067	-372
29,46133	-310
29,47200	-247
29,48267	-178
29,49333	-110
29,50400	-43
29,51467	20
29,52533	73
29,53600	128
29,54667	161
29,55733	183
29,56800	196
29,57867	190
29,58933	163
29,60000	115
29,61067	55
29,62133	-10
29,63200	-72
29,64267	-129
29,65333	-185
29,66400	-236
29,67467	-267
29,68533	-300
29,69600	-316
29,70667	-335
29,71733	-353
29,72800	-366
29,73867	-375
29,74933	-383
29,76000	-396
29,77067	-402
29,78133	-407
29,79200	-414
29,80267	-413
29,81333	-419
29,82400	-422
29,83467	-419
29,84533	-428
29,85600	-431
29,86667	-429
29,87733	-428
29,88800	-432
29,89867	-432
29,90933	-440
29,92000	-437
29,93067	-436
29,94133	-437
29,95200	-434
29,96267	-430
29,97333	-431
29,98400	-432
29,99467	-431
30,00533	-430
30,01600	-430
30,02667	-427
30,03733	-430
30,04800	-429
30,05867	-433
30,06933	-432
30,08000	-429
30,09067	-431
30,10133	-425
30,11200	-419
30,12267	-415
30,13333	-411
30,14400	-407
30,15467	-403
30,16533	-394
30,17600	-392
30,18667	-387
30,19733	-375
30,20800	-367
30,21867	-361
30,22933	-354
30,24000	-346
30,25067	-339
30,26133	-329
30,27200	-316
30,28267	-312
30,29333	-301
30,30400	-297
30,31467	-291
30,32533	-284
30,33600	-281
30,34667	-274
30,35733	-274
30,36800	-268
30,37867	-272
30,38933	-261
30,40000	-259
30,41067	-256
30,42133	-252
30,43200	-257
30,44267	-264
30,45333	-261
30,46400	-267
30,47467	-273
30,48533	-278
30,49600	-280
30,50667	-285
30,51733	-288
30,52800	-288
30,53867	-288
30,54933	-288
30,56000	-287
30,57067	-282
30,58133	-276
30,59200	-272
30,60267	-262
30,61333	-250
30,62400	-239
30,63467	-235
30,64533	-229
30,65600	-223
30,66667	-221
30,67733	-222
30,68800	-224
30,69867	-223
30,70933	-219
30,72000	-226
30,73067	-225
30,74133	-224
30,75200	-229
30,76267	-229
30,77333	-226
30,78400	-228
30,79467	-225
30,80533	-230
30,81600	-230
30,82667	-232
30,83733	-229
30,84800	-232
30,85867	-228
30,86933	-226
30,88000	-227
30,89067	-224
30,90133	-225
30,91200	-217
30,92267	-212
30,93333	-215
30,94400	-215
30,95467	-211
30,96533	-212
30,97600	-209
30,98667	-208
30,99733	-206
31,00800	-202
31,01867	-202
31,02933	-202
31,04000	-206
31,05067	-200
31,06133	-206
31,07200	-207
31,08267	-212
31,09333	-218
31,10400	-218
31,11467	-222
31,12533	-225
31,13600	-229
31,14667	-227
31,15733	-229
31,16800	-229
31,17867	-231
31,18933	-233
31,20000	-231
31,21067	-232
31,22133	-233
31,23200	-235
31,24267	-243
31,25333	-239
31,26400	-240
31,27467	-251
31,28533	-254
31,29600	-252
31,30667	-251
31,31733	-262
31,32800	-268
31,33867	-273
31,34933	-269
31,36000	-268
31,37067	-271
31,38133	-276
31,39200	-275
31,40267	-269
31,41333	-268
31,42400	-269
31,43467	-268
31,44533	-265
31,45600	-268
31,46667	-267
31,47733	-262
31,48800	-261
31,49867	-253
31,50933	-251
31,52000	-248
31,53067	-246
31,54133	-237
31,55200	-237
31,56267	-233
31,57333	-231
31,58400	-233
31,59467	-228
31,60533	-227
31,61600	-224
31,62667	-223
31,63733	-219
31,64800	-220
31,65867	-217
31,66933	-210
31,68000	-211
31,69067	-213
31,70133	-211
31,71200	-208
31,72267	-202
31,73333	-199
31,74400	-200
31,75467	-200
31,76533	-201
31,77600	-197
31,78667	-194
31,79733	-188
31,80800	-189
31,81867	-186
31,82933	-189
31,84000	-195
31,85067	-187
31,86133	-186
31,87200	-185
31,88267	-185
31,89333	-189
31,90400	-180
31,91467	-181
31,92533	-176
31,93600	-182
31,94667	-186
31,95733	-182
31,96800	-175
31,97867	-178
31,98933	-182
32,00000	-179
32,01067	-180
32,02133	-179
32,03200	-180
32,04267	-173
32,05333	-173
32,06400	-171
32,07467	-174
32,08533	-170
32,09600	-171
32,10667	-168
32,11733	-167
32,12800	-169
32,13867	-161
32,14933	-162
32,16000	-154
32,17067	-158
32,18133	-160
32,19200	-154
32,20267	-149
32,21333	-157
32,22400	-155
32,23467	-148
32,24533	-143
32,25600	-144
32,26667	-142
32,27733	-141
32,28800	-139
32,29867	-140
32,30933	-139
32,32000	-139
32,33067	-143
32,34133	-136
32,35200	-138
32,36267	-140
32,37333	-140
32,38400	-137
32,39467	-134
32,40533	-139
32,41600	-133
32,42667	-134
32,43733	-137
32,44800	-136
32,45867	-139
32,46933	-137
32,48000	-131
32,49067	-132
32,50133	-140
32,51200	-133
32,52267	-133
32,53333	-132
32,54400	-134
32,55467	-134
32,56533	-127
32,57600	-127
32,58667	-126
32,59733	-120
32,60800	-127
32,61867	-121
32,62933	-121
32,64000	-115
32,65067	-119
32,66133	-115
32,67200	-121
32,68267	-122
32,69333	-122
32,70400	-109
32,71467	-113
32,72533	-112
32,73600	-112
32,74667	-109
32,75733	-112
32,76800	-111
32,77867	-108
32,78933	-109
32,80000	-111
32,81067	-111
32,82133	-111
32,83200	-109
32,84267	-103
32,85333	-101
32,86400	-102
32,87467	-106
32,88533	-102
32,89600	-104
32,90667	-103
32,91733	-103
32,92800	-99
32,93867	-99
32,94933	-102
32,96000	-97
32,97067	-100
32,98133	-101
32,99200	-94
33,00267	-93
33,01333	-94
33,02400	-98
33,03467	-96
33,04533	-92
33,05600	-93
33,06667	-101
33,07733	-101
33,08800	-99
33,09867	-96
33,10933	-98
33,12000	-99
33,13067	-99
33,14133	-95
33,15200	-97
33,16267	-99
33,17333	-99
33,18400	-97
33,19467	-93
33,20533	-93
33,21600	-91
33,22667	-88
33,23733	-87
33,24800	-84
33,25867	-88
33,26933	-87
33,28000	-85
33,29067	-84
33,30133	-81
33,31200	-76
33,32267	-81
33,33333	-79
33,34400	-75
33,35467	-75
33,36533	-74
33,37600	-77
33,38667	-73
33,39733	-71
33,40800	-74
33,41867	-75
33,42933	-75
33,44000	-75
33,45067	-74
33,46133	-74
33,47200	-73
33,48267	-75
33,49333	-73
33,50400	-77
33,51467	-72
33,52533	-77
33,53600	-72
33,54667	-75
33,55733	-69
33,56800	-65
33,57867	-63
33,58933	-64
33,60000	-62
33,61067	-58
33,62133	-58
33,63200	-57
33,64267	-61
33,65333	-61
33,66400	-57
33,67467	-62
33,68533	-58
33,69600	-61
33,70667	-59
33,71733	-56
33,72800	-53
33,73867	-50
33,74933	-51
33,76000	-51
33,77067	-54
33,78133	-58
33,79200	-53
33,80267	-47
33,81333	-39
33,82400	-44
33,83467	-40
33,84533	-43
33,85600	-41
33,86667	-41
33,87733	-40
33,88800	-37
33,89867	-39
33,90933	-41
33,92000	-41
33,93067	-36
33,94133	-33
33,95200	-33
33,96267	-36
33,97333	-37
33,98400	-35
33,99467	-36
34,00533	-39
34,01600	-39
34,02667	-30
34,03733	-29
34,04800	-37
34,05867	-27
34,06933	-25
34,08000	-22
34,09067	-22
34,10133	-23
34,11200	-25
34,12267	-27
34,13333	-22
34,14400	-24
34,15467	-21
34,16533	-15
34,17600	-16
34,18667	-15
34,19733	-18
34,20800	-13
34,21867	-15
34,22933	-18
34,24000	-16
34,25067	-12
34,26133	-13
34,27200	-22
34,28267	-20
34,29333	-10
34,30400	-8
34,31467	-15
34,32533	-11
34,33600	-9
34,34667	-10
34,35733	-10
34,36800	-11
34,37867	-11
34,38933	-10
34,40000	-10
34,41067	-9
34,42133	-9
34,43200	-3
34,44267	2
34,45333	-2
34,46400	-2
34,47467	-1
34,48533	-4
34,49600	1
34,50667	3
34,51733	4
34,52800	4
34,53867	-2
34,54933	-3
34,56000	0
34,57067	-1
34,58133	-3
34,59200	3
34,60267	4
34,61333	4
34,62400	0
34,63467	-2
34,64533	4
34,65600	2
34,66667	1
34,67733	4
34,68800	4
34,69867	4
34,70933	-2
34,72000	7
34,73067	4
34,74133	6
34,75200	10
34,76267	14
34,77333	10
34,78400	9
34,79467	8
34,80533	8
34,81600	6
34,82667	11
34,83733	14
34,84800	9
34,85867	9
34,86933	9
34,88000	9
34,89067	16
34,90133	17
34,91200	15
34,92267	13
34,93333	14
34,94400	13
34,95467	12
34,96533	10
34,97600	14
34,98667	11
34,99733	18
35,00800	16
35,01867	10
35,02933	18
35,04000	15
35,05067	20
35,06133	18
35,07200	19
35,08267	23
35,09333	21
35,10400	16
35,11467	19
35,12533	21
35,13600	26
35,14667	26
35,15733	29
35,16800	26
35,17867	28
35,18933	24
35,20000	19
35,21067	24
35,22133	21
35,23200	19
35,24267	22
35,25333	27
35,26400	27
35,27467	29
35,28533	24
35,29600	25
35,30667	24
35,31733	25
35,32800	27
35,33867	27
35,34933	29
35,36000	28
35,37067	30
35,38133	27
35,39200	26
35,40267	28
35,41333	31
35,42400	30
35,43467	32
35,44533	31
35,45600	27
35,46667	28
35,47733	28
35,48800	29
35,49867	35
35,50933	31
35,52000	28
35,53067	35
35,54133	35
35,55200	32
35,56267	29
35,57333	31
35,58400	31
35,59467	30
35,60533	31
35,61600	29
35,62667	29
35,63733	30
35,64800	31
35,65867	29
35,66933	30
35,68000	30
35,69067	26
35,70133	25
35,71200	27
35,72267	30
35,73333	26
35,74400	26
35,75467	30
35,76533	33
35,77600	32
35,78667	31
35,79733	29
35,80800	23
35,81867	25
35,82933	23
35,84000	21
35,85067	24
35,86133	21
35,87200	25
35,88267	26
35,89333	25
35,90400	26
35,91467	29
35,92533	29
35,93600	24
35,94667	27
35,95733	27
35,96800	31
35,97867	33
35,98933	35
36,00000	30
36,01067	33
36,02133	29


