[Header]
Application Name	LabSolutions
Version	5.71
Data File Name	C:\LabSolutions\Data\Project1\Daniel Moreira\COMPOUND1\2025.07.03_compound1_4_004.lcd
Output Date	02/01/2013
Output Time	20:58:02

[File Information]
Type	Data File
Generated	02/01/2013 16:36:41
Generated by	System Administrator
Modified	02/01/2013 20:50:49
Modified by	System Administrator

[Sample Information]
Operator Name	System Administrator
Acquired	02/01/2013 16:37:07
Sample Type	0:Unknown
Level	0
Sample Name	Compound1-Std
Sample ID	Compound1-Std-1-4
ISTD Amount1	1
ISTD Amount2	1
ISTD Amount3	1
ISTD Amount4	1
ISTD Amount5	1
ISTD Amount6	1
ISTD Amount7	1
ISTD Amount8	1
ISTD Amount9	1
ISTD Amount10	1
ISTD Amount11	1
ISTD Amount12	1
ISTD Amount13	1
ISTD Amount14	1
ISTD Amount15	1
ISTD Amount16	1
ISTD Amount17	1
ISTD Amount18	1
ISTD Amount19	1
ISTD Amount20	1
ISTD Amount21	1
ISTD Amount22	1
ISTD Amount23	1
ISTD Amount24	1
ISTD Amount25	1
ISTD Amount26	1
ISTD Amount27	1
ISTD Amount28	1
ISTD Amount29	1
ISTD Amount30	1
ISTD Amount31	1
ISTD Amount32	1
Sample Amount	1
Dilution Factor	1
Vial#	64
Injection Volume	25

[Original Files]
Data File	C:\LabSolutions\Data\Project1\Daniel Moreira\COMPOUND1\2025.07.03_compound1_4_004.lcd
Method File	C:\LabSolutions\Data\Project1\Daniel Moreira\COMPOUND1.lcm
Batch File	C:\LabSolutions\Data\Project1\Daniel Moreira\COMPOUND1\2025.07.03_compound1.lcb
Report Format File	C:\LabSolutions\System\DEFAULT.lsr

[File Description]


[Configuration]
Instrument Name	HPLC-PC-Instrument
Instrument #	2
Line #	1
# of Detectors	1
Detector ID	PDA
Detector Name	PDA
# of Channels	1

[Peak Table(PDA-Ch2)]
# of Peaks	15
Peak#	R.Time	I.Time	F.Time	Area	Height	A/H	Conc.	Mark	ID#	Name	k'	Plate #	Plate Ht.	Tailing	Resolution	Sep.Factor	Area Ratio	Height Ratio	Conc. %	Norm Conc.
1	0,686	0,107	1,205	111984	26273	4,262	7,542	   			0,000	18	8189,400	0,921	0,000	0,000	0	0	0,000	0,000
2	2,773	1,963	2,891	4466	121	37,044	0,301	   			3,045	165	910,113	0,573	2,775	0,000	0	0	0,000	0,000
3	3,147	2,912	3,232	1374	105	13,141	0,093	   			3,590	1226	122,357	0,000	0,610	1,179	0	0	0,000	0,000
4	3,353	3,232	3,584	6146	649	9,477	0,414	 V 			3,891	2601	57,678	0,000	0,664	1,084	0	0	0,000	0,000
5	13,388	13,280	13,568	1136	167	6,800	0,076	   			18,527	73161	2,050	1,141	43,531	4,761	0	0	0,000	0,000
6	14,933	14,635	15,040	49456	7010	7,055	3,331	   			20,781	86242	1,739	0,000	7,700	1,122	0	0	0,000	0,000
7	15,231	15,040	16,939	1242078	162587	7,639	83,649	SV 			21,215	90839	1,651	1,241	1,467	1,021	0	0	0,000	0,000
8	15,544	15,467	15,637	4626	1005	4,604	0,312	T  			21,671	182095	0,824	1,117	1,800	1,022	0	0	0,000	0,000
9	15,715	15,637	15,776	1907	359	5,307	0,128	TV 			21,921	116307	1,290	0,000	1,038	1,012	0	0	0,000	0,000
10	15,874	15,776	16,160	18216	2058	8,853	1,227	TV 			22,153	73862	2,031	0,000	0,762	1,011	0	0	0,000	0,000
11	16,330	16,213	16,587	15822	2309	6,853	1,066	T  			22,819	105472	1,422	1,257	2,099	1,030	0	0	0,000	0,000
12	19,361	19,083	19,733	11378	844	13,473	0,766	   			27,239	49119	3,054	1,178	11,009	1,194	0	0	0,000	0,000
13	26,225	26,005	26,464	4820	413	11,659	0,325	   			37,252	111114	1,350	1,116	20,672	1,368	0	0	0,000	0,000
14	27,611	27,413	27,765	2514	250	10,058	0,169	   			39,273	152973	0,981	0,896	4,642	1,054	0	0	0,000	0,000
15	29,581	29,355	29,888	8951	764	11,709	0,603	   			42,146	148528	1,010	1,228	6,683	1,073	0	0	0,000	0,000

[Compound Results(PDA)]
# of IDs	0

[PDA Multi Chromatogram(Ch2)]
# of Points	      3378
Interval(msec)	640
Start Time(min)	0
End Time(min)	36,0213
Intensity Units	mAU
Intensity Multiplier	1
Type	MultiChrom
Wavelength(nm)	280
Bandwidth(nm)	4
R.Time (min)	Intensity
0,00000	0
0,01067	0
0,02133	0
0,03200	0
0,04267	0
0,05333	0
0,06400	0
0,07467	0
0,08533	0
0,09600	0
0,10667	0
0,11733	12
0,12800	29
0,13867	43
0,14933	62
0,16000	74
0,17067	84
0,18133	97
0,19200	112
0,20267	123
0,21333	139
0,22400	156
0,23467	175
0,24533	188
0,25600	208
0,26667	229
0,27733	248
0,28800	264
0,29867	283
0,30933	295
0,32000	306
0,33067	320
0,34133	328
0,35200	341
0,36267	349
0,37333	357
0,38400	366
0,39467	371
0,40533	386
0,41600	400
0,42667	410
0,43733	422
0,44800	428
0,45867	437
0,46933	449
0,48000	461
0,49067	471
0,50133	482
0,51200	496
0,52267	510
0,53333	518
0,54400	534
0,55467	552
0,56533	569
0,57600	585
0,58667	608
0,59733	632
0,60800	651
0,61867	681
0,62933	718
0,64000	771
0,65067	845
0,66133	955
0,67200	1606
0,68267	24964
0,69333	18167
0,70400	8878
0,71467	7987
0,72533	6770
0,73600	5180
0,74667	3871
0,75733	2863
0,76800	2132
0,77867	1608
0,78933	1189
0,80000	827
0,81067	529
0,82133	276
0,83200	48
0,84267	-152
0,85333	-334
0,86400	-500
0,87467	-656
0,88533	-795
0,89600	-915
0,90667	-1033
0,91733	-1142
0,92800	-1245
0,93867	-1335
0,94933	-1417
0,96000	-1495
0,97067	-1571
0,98133	-1641
0,99200	-1708
1,00267	-1777
1,01333	-1831
1,02400	-1856
1,03467	-1925
1,04533	-1982
1,05600	-2025
1,06667	-2073
1,07733	-2112
1,08800	-2152
1,09867	-2189
1,10933	-2220
1,12000	-2254
1,13067	-2288
1,14133	-2313
1,15200	-2342
1,16267	-2373
1,17333	-2394
1,18400	-2427
1,19467	-2456
1,20533	-2485
1,21600	-2507
1,22667	-2537
1,23733	-2556
1,24800	-2581
1,25867	-2602
1,26933	-2622
1,28000	-2642
1,29067	-2663
1,30133	-2683
1,31200	-2703
1,32267	-2722
1,33333	-2745
1,34400	-2760
1,35467	-2772
1,36533	-2795
1,37600	-2811
1,38667	-2827
1,39733	-2841
1,40800	-2854
1,41867	-2867
1,42933	-2880
1,44000	-2886
1,45067	-2905
1,46133	-2910
1,47200	-2923
1,48267	-2931
1,49333	-2937
1,50400	-2942
1,51467	-2951
1,52533	-2956
1,53600	-2957
1,54667	-2960
1,55733	-2973
1,56800	-2976
1,57867	-2979
1,58933	-2981
1,60000	-2976
1,61067	-2983
1,62133	-2987
1,63200	-2985
1,64267	-2986
1,65333	-2986
1,66400	-2985
1,67467	-2987
1,68533	-2982
1,69600	-2979
1,70667	-2976
1,71733	-2974
1,72800	-2978
1,73867	-2973
1,74933	-2974
1,76000	-2970
1,77067	-2960
1,78133	-2960
1,79200	-2955
1,80267	-2951
1,81333	-2949
1,82400	-2940
1,83467	-2931
1,84533	-2883
1,85600	-2909
1,86667	-2911
1,87733	-2912
1,88800	-2908
1,89867	-2901
1,90933	-2891
1,92000	-2886
1,93067	-2883
1,94133	-2872
1,95200	-2868
1,96267	-2856
1,97333	-2851
1,98400	-2846
1,99467	-2837
2,00533	-2832
2,01600	-2823
2,02667	-2817
2,03733	-2805
2,04800	-2794
2,05867	-2785
2,06933	-2781
2,08000	-2775
2,09067	-2767
2,10133	-2754
2,11200	-2746
2,12267	-2734
2,13333	-2734
2,14400	-2726
2,15467	-2712
2,16533	-2705
2,17600	-2695
2,18667	-2690
2,19733	-2683
2,20800	-2670
2,21867	-2660
2,22933	-2649
2,24000	-2643
2,25067	-2633
2,26133	-2627
2,27200	-2620
2,28267	-2607
2,29333	-2597
2,30400	-2592
2,31467	-2578
2,32533	-2575
2,33600	-2563
2,34667	-2555
2,35733	-2547
2,36800	-2539
2,37867	-2537
2,38933	-2530
2,40000	-2515
2,41067	-2507
2,42133	-2494
2,43200	-2490
2,44267	-2480
2,45333	-2472
2,46400	-2467
2,47467	-2459
2,48533	-2454
2,49600	-2439
2,50667	-2428
2,51733	-2421
2,52800	-2414
2,53867	-2407
2,54933	-2396
2,56000	-2392
2,57067	-2387
2,58133	-2375
2,59200	-2369
2,60267	-2357
2,61333	-2353
2,62400	-2348
2,63467	-2344
2,64533	-2317
2,65600	-2318
2,66667	-2320
2,67733	-2311
2,68800	-2308
2,69867	-2300
2,70933	-2291
2,72000	-2292
2,73067	-2288
2,74133	-2281
2,75200	-2283
2,76267	-2276
2,77333	-2274
2,78400	-2276
2,79467	-2277
2,80533	-2278
2,81600	-2285
2,82667	-2284
2,83733	-2293
2,84800	-2305
2,85867	-2310
2,86933	-2318
2,88000	-2326
2,89067	-2328
2,90133	-2322
2,91200	-2316
2,92267	-2305
2,93333	-2294
2,94400	-2280
2,95467	-2267
2,96533	-2244
2,97600	-2225
2,98667	-2209
2,99733	-2189
3,00800	-2171
3,01867	-2159
3,02933	-2154
3,04000	-2148
3,05067	-2141
3,06133	-2133
3,07200	-2137
3,08267	-2137
3,09333	-2133
3,10400	-2125
3,11467	-2112
3,12533	-2093
3,13600	-2080
3,14667	-2063
3,15733	-2057
3,16800	-2057
3,17867	-2055
3,18933	-2063
3,20000	-2066
3,21067	-2072
3,22133	-2068
3,23200	-2062
3,24267	-2053
3,25333	-2019
3,26400	-1973
3,27467	-1900
3,28533	-1810
3,29600	-1704
3,30667	-1601
3,31733	-1505
3,32800	-1435
3,33867	-1399
3,34933	-1388
3,36000	-1389
3,37067	-1417
3,38133	-1453
3,39200	-1492
3,40267	-1534
3,41333	-1577
3,42400	-1621
3,43467	-1659
3,44533	-1694
3,45600	-1726
3,46667	-1756
3,47733	-1778
3,48800	-1795
3,49867	-1818
3,50933	-1839
3,52000	-1851
3,53067	-1864
3,54133	-1871
3,55200	-1882
3,56267	-1885
3,57333	-1886
3,58400	-1891
3,59467	-1890
3,60533	-1888
3,61600	-1877
3,62667	-1881
3,63733	-1875
3,64800	-1865
3,65867	-1857
3,66933	-1856
3,68000	-1854
3,69067	-1853
3,70133	-1842
3,71200	-1838
3,72267	-1833
3,73333	-1827
3,74400	-1824
3,75467	-1816
3,76533	-1813
3,77600	-1806
3,78667	-1803
3,79733	-1800
3,80800	-1793
3,81867	-1789
3,82933	-1789
3,84000	-1785
3,85067	-1783
3,86133	-1778
3,87200	-1774
3,88267	-1768
3,89333	-1767
3,90400	-1764
3,91467	-1763
3,92533	-1760
3,93600	-1759
3,94667	-1758
3,95733	-1753
3,96800	-1747
3,97867	-1742
3,98933	-1737
4,00000	-1739
4,01067	-1733
4,02133	-1729
4,03200	-1723
4,04267	-1727
4,05333	-1725
4,06400	-1721
4,07467	-1714
4,08533	-1710
4,09600	-1713
4,10667	-1706
4,11733	-1706
4,12800	-1706
4,13867	-1703
4,14933	-1691
4,16000	-1693
4,17067	-1699
4,18133	-1692
4,19200	-1693
4,20267	-1694
4,21333	-1693
4,22400	-1687
4,23467	-1678
4,24533	-1680
4,25600	-1682
4,26667	-1678
4,27733	-1679
4,28800	-1674
4,29867	-1674
4,30933	-1669
4,32000	-1672
4,33067	-1675
4,34133	-1673
4,35200	-1668
4,36267	-1662
4,37333	-1666
4,38400	-1663
4,39467	-1664
4,40533	-1661
4,41600	-1661
4,42667	-1659
4,43733	-1657
4,44800	-1656
4,45867	-1661
4,46933	-1657
4,48000	-1656
4,49067	-1655
4,50133	-1651
4,51200	-1652
4,52267	-1656
4,53333	-1653
4,54400	-1653
4,55467	-1659
4,56533	-1656
4,57600	-1659
4,58667	-1654
4,59733	-1654
4,60800	-1649
4,61867	-1649
4,62933	-1652
4,64000	-1656
4,65067	-1652
4,66133	-1649
4,67200	-1648
4,68267	-1648
4,69333	-1647
4,70400	-1650
4,71467	-1648
4,72533	-1645
4,73600	-1647
4,74667	-1650
4,75733	-1653
4,76800	-1654
4,77867	-1653
4,78933	-1650
4,80000	-1650
4,81067	-1657
4,82133	-1657
4,83200	-1647
4,84267	-1653
4,85333	-1649
4,86400	-1644
4,87467	-1645
4,88533	-1647
4,89600	-1651
4,90667	-1647
4,91733	-1650
4,92800	-1650
4,93867	-1646
4,94933	-1643
4,96000	-1649
4,97067	-1645
4,98133	-1645
4,99200	-1647
5,00267	-1645
5,01333	-1648
5,02400	-1654
5,03467	-1642
5,04533	-1650
5,05600	-1644
5,06667	-1649
5,07733	-1644
5,08800	-1650
5,09867	-1649
5,10933	-1644
5,12000	-1649
5,13067	-1646
5,14133	-1647
5,15200	-1652
5,16267	-1649
5,17333	-1649
5,18400	-1649
5,19467	-1649
5,20533	-1649
5,21600	-1651
5,22667	-1648
5,23733	-1641
5,24800	-1645
5,25867	-1642
5,26933	-1642
5,28000	-1644
5,29067	-1645
5,30133	-1640
5,31200	-1643
5,32267	-1639
5,33333	-1641
5,34400	-1640
5,35467	-1640
5,36533	-1640
5,37600	-1644
5,38667	-1642
5,39733	-1639
5,40800	-1637
5,41867	-1638
5,42933	-1643
5,44000	-1638
5,45067	-1638
5,46133	-1643
5,47200	-1634
5,48267	-1631
5,49333	-1629
5,50400	-1634
5,51467	-1637
5,52533	-1636
5,53600	-1633
5,54667	-1634
5,55733	-1637
5,56800	-1639
5,57867	-1635
5,58933	-1632
5,60000	-1634
5,61067	-1631
5,62133	-1633
5,63200	-1633
5,64267	-1634
5,65333	-1636
5,66400	-1636
5,67467	-1633
5,68533	-1630
5,69600	-1631
5,70667	-1631
5,71733	-1625
5,72800	-1628
5,73867	-1631
5,74933	-1631
5,76000	-1629
5,77067	-1631
5,78133	-1640
5,79200	-1637
5,80267	-1634
5,81333	-1633
5,82400	-1636
5,83467	-1632
5,84533	-1635
5,85600	-1636
5,86667	-1631
5,87733	-1630
5,88800	-1630
5,89867	-1629
5,90933	-1632
5,92000	-1627
5,93067	-1627
5,94133	-1629
5,95200	-1632
5,96267	-1632
5,97333	-1632
5,98400	-1633
5,99467	-1636
6,00533	-1632
6,01600	-1632
6,02667	-1632
6,03733	-1630
6,04800	-1635
6,05867	-1633
6,06933	-1626
6,08000	-1629
6,09067	-1625
6,10133	-1630
6,11200	-1629
6,12267	-1629
6,13333	-1628
6,14400	-1626
6,15467	-1628
6,16533	-1632
6,17600	-1629
6,18667	-1634
6,19733	-1636
6,20800	-1632
6,21867	-1633
6,22933	-1634
6,24000	-1636
6,25067	-1638
6,26133	-1635
6,27200	-1635
6,28267	-1637
6,29333	-1627
6,30400	-1629
6,31467	-1632
6,32533	-1635
6,33600	-1634
6,34667	-1634
6,35733	-1639
6,36800	-1636
6,37867	-1638
6,38933	-1636
6,40000	-1634
6,41067	-1635
6,42133	-1636
6,43200	-1636
6,44267	-1638
6,45333	-1638
6,46400	-1640
6,47467	-1633
6,48533	-1635
6,49600	-1633
6,50667	-1635
6,51733	-1633
6,52800	-1632
6,53867	-1632
6,54933	-1629
6,56000	-1631
6,57067	-1634
6,58133	-1630
6,59200	-1630
6,60267	-1637
6,61333	-1631
6,62400	-1636
6,63467	-1633
6,64533	-1632
6,65600	-1633
6,66667	-1637
6,67733	-1637
6,68800	-1636
6,69867	-1634
6,70933	-1634
6,72000	-1630
6,73067	-1629
6,74133	-1630
6,75200	-1631
6,76267	-1630
6,77333	-1633
6,78400	-1636
6,79467	-1627
6,80533	-1637
6,81600	-1638
6,82667	-1637
6,83733	-1637
6,84800	-1638
6,85867	-1638
6,86933	-1640
6,88000	-1638
6,89067	-1637
6,90133	-1637
6,91200	-1635
6,92267	-1633
6,93333	-1637
6,94400	-1634
6,95467	-1637
6,96533	-1637
6,97600	-1632
6,98667	-1640
6,99733	-1632
7,00800	-1634
7,01867	-1640
7,02933	-1639
7,04000	-1637
7,05067	-1635
7,06133	-1640
7,07200	-1634
7,08267	-1635
7,09333	-1632
7,10400	-1633
7,11467	-1633
7,12533	-1634
7,13600	-1629
7,14667	-1632
7,15733	-1632
7,16800	-1629
7,17867	-1621
7,18933	-1625
7,20000	-1625
7,21067	-1625
7,22133	-1626
7,23200	-1621
7,24267	-1623
7,25333	-1623
7,26400	-1618
7,27467	-1625
7,28533	-1619
7,29600	-1620
7,30667	-1622
7,31733	-1617
7,32800	-1619
7,33867	-1616
7,34933	-1615
7,36000	-1614
7,37067	-1615
7,38133	-1613
7,39200	-1613
7,40267	-1610
7,41333	-1609
7,42400	-1608
7,43467	-1609
7,44533	-1608
7,45600	-1605
7,46667	-1605
7,47733	-1605
7,48800	-1608
7,49867	-1605
7,50933	-1607
7,52000	-1600
7,53067	-1600
7,54133	-1596
7,55200	-1599
7,56267	-1596
7,57333	-1595
7,58400	-1593
7,59467	-1588
7,60533	-1587
7,61600	-1589
7,62667	-1590
7,63733	-1589
7,64800	-1585
7,65867	-1579
7,66933	-1582
7,68000	-1581
7,69067	-1579
7,70133	-1585
7,71200	-1583
7,72267	-1580
7,73333	-1575
7,74400	-1571
7,75467	-1569
7,76533	-1571
7,77600	-1562
7,78667	-1569
7,79733	-1565
7,80800	-1562
7,81867	-1561
7,82933	-1558
7,84000	-1561
7,85067	-1557
7,86133	-1555
7,87200	-1547
7,88267	-1554
7,89333	-1555
7,90400	-1556
7,91467	-1548
7,92533	-1541
7,93600	-1540
7,94667	-1537
7,95733	-1537
7,96800	-1534
7,97867	-1529
7,98933	-1530
8,00000	-1525
8,01067	-1521
8,02133	-1526
8,03200	-1525
8,04267	-1524
8,05333	-1524
8,06400	-1519
8,07467	-1517
8,08533	-1514
8,09600	-1513
8,10667	-1517
8,11733	-1510
8,12800	-1506
8,13867	-1502
8,14933	-1503
8,16000	-1503
8,17067	-1503
8,18133	-1500
8,19200	-1503
8,20267	-1498
8,21333	-1495
8,22400	-1502
8,23467	-1502
8,24533	-1499
8,25600	-1502
8,26667	-1496
8,27733	-1496
8,28800	-1488
8,29867	-1486
8,30933	-1490
8,32000	-1487
8,33067	-1496
8,34133	-1496
8,35200	-1495
8,36267	-1490
8,37333	-1492
8,38400	-1492
8,39467	-1494
8,40533	-1494
8,41600	-1494
8,42667	-1494
8,43733	-1496
8,44800	-1497
8,45867	-1494
8,46933	-1494
8,48000	-1495
8,49067	-1498
8,50133	-1496
8,51200	-1493
8,52267	-1490
8,53333	-1495
8,54400	-1495
8,55467	-1494
8,56533	-1493
8,57600	-1492
8,58667	-1493
8,59733	-1498
8,60800	-1503
8,61867	-1502
8,62933	-1500
8,64000	-1499
8,65067	-1506
8,66133	-1506
8,67200	-1506
8,68267	-1503
8,69333	-1504
8,70400	-1508
8,71467	-1510
8,72533	-1514
8,73600	-1515
8,74667	-1509
8,75733	-1511
8,76800	-1516
8,77867	-1520
8,78933	-1521
8,80000	-1518
8,81067	-1523
8,82133	-1522
8,83200	-1525
8,84267	-1526
8,85333	-1525
8,86400	-1529
8,87467	-1530
8,88533	-1530
8,89600	-1533
8,90667	-1540
8,91733	-1541
8,92800	-1541
8,93867	-1536
8,94933	-1543
8,96000	-1541
8,97067	-1542
8,98133	-1549
8,99200	-1550
9,00267	-1554
9,01333	-1557
9,02400	-1558
9,03467	-1559
9,04533	-1560
9,05600	-1566
9,06667	-1571
9,07733	-1567
9,08800	-1573
9,09867	-1574
9,10933	-1575
9,12000	-1578
9,13067	-1581
9,14133	-1582
9,15200	-1582
9,16267	-1585
9,17333	-1584
9,18400	-1585
9,19467	-1593
9,20533	-1595
9,21600	-1602
9,22667	-1599
9,23733	-1606
9,24800	-1608
9,25867	-1603
9,26933	-1606
9,28000	-1610
9,29067	-1618
9,30133	-1619
9,31200	-1617
9,32267	-1619
9,33333	-1618
9,34400	-1622
9,35467	-1628
9,36533	-1635
9,37600	-1629
9,38667	-1637
9,39733	-1640
9,40800	-1638
9,41867	-1643
9,42933	-1643
9,44000	-1644
9,45067	-1647
9,46133	-1652
9,47200	-1658
9,48267	-1658
9,49333	-1658
9,50400	-1661
9,51467	-1664
9,52533	-1661
9,53600	-1660
9,54667	-1667
9,55733	-1669
9,56800	-1672
9,57867	-1674
9,58933	-1674
9,60000	-1674
9,61067	-1676
9,62133	-1689
9,63200	-1692
9,64267	-1685
9,65333	-1691
9,66400	-1691
9,67467	-1693
9,68533	-1697
9,69600	-1695
9,70667	-1698
9,71733	-1702
9,72800	-1703
9,73867	-1702
9,74933	-1705
9,76000	-1708
9,77067	-1703
9,78133	-1704
9,79200	-1704
9,80267	-1708
9,81333	-1714
9,82400	-1716
9,83467	-1721
9,84533	-1716
9,85600	-1720
9,86667	-1728
9,87733	-1722
9,88800	-1719
9,89867	-1724
9,90933	-1726
9,92000	-1721
9,93067	-1726
9,94133	-1721
9,95200	-1718
9,96267	-1720
9,97333	-1719
9,98400	-1717
9,99467	-1722
10,00533	-1722
10,01600	-1725
10,02667	-1730
10,03733	-1729
10,04800	-1733
10,05867	-1731
10,06933	-1734
10,08000	-1738
10,09067	-1740
10,10133	-1744
10,11200	-1748
10,12267	-1752
10,13333	-1744
10,14400	-1743
10,15467	-1741
10,16533	-1734
10,17600	-1734
10,18667	-1727
10,19733	-1728
10,20800	-1726
10,21867	-1726
10,22933	-1733
10,24000	-1745
10,25067	-1753
10,26133	-1763
10,27200	-1774
10,28267	-1785
10,29333	-1790
10,30400	-1797
10,31467	-1806
10,32533	-1807
10,33600	-1809
10,34667	-1811
10,35733	-1816
10,36800	-1811
10,37867	-1809
10,38933	-1815
10,40000	-1817
10,41067	-1819
10,42133	-1823
10,43200	-1823
10,44267	-1828
10,45333	-1832
10,46400	-1835
10,47467	-1838
10,48533	-1847
10,49600	-1847
10,50667	-1847
10,51733	-1851
10,52800	-1857
10,53867	-1862
10,54933	-1856
10,56000	-1859
10,57067	-1853
10,58133	-1858
10,59200	-1862
10,60267	-1871
10,61333	-1873
10,62400	-1868
10,63467	-1869
10,64533	-1870
10,65600	-1869
10,66667	-1868
10,67733	-1869
10,68800	-1866
10,69867	-1869
10,70933	-1866
10,72000	-1865
10,73067	-1862
10,74133	-1861
10,75200	-1863
10,76267	-1862
10,77333	-1865
10,78400	-1867
10,79467	-1875
10,80533	-1875
10,81600	-1884
10,82667	-1876
10,83733	-1886
10,84800	-1887
10,85867	-1892
10,86933	-1897
10,88000	-1896
10,89067	-1903
10,90133	-1909
10,91200	-1914
10,92267	-1917
10,93333	-1920
10,94400	-1925
10,95467	-1927
10,96533	-1930
10,97600	-1933
10,98667	-1932
10,99733	-1929
11,00800	-1933
11,01867	-1936
11,02933	-1942
11,04000	-1941
11,05067	-1945
11,06133	-1944
11,07200	-1946
11,08267	-1948
11,09333	-1951
11,10400	-1950
11,11467	-1950
11,12533	-1955
11,13600	-1959
11,14667	-1963
11,15733	-1965
11,16800	-1967
11,17867	-1974
11,18933	-1971
11,20000	-1971
11,21067	-1973
11,22133	-1973
11,23200	-1967
11,24267	-1976
11,25333	-1982
11,26400	-1982
11,27467	-1984
11,28533	-1989
11,29600	-1991
11,30667	-1990
11,31733	-1996
11,32800	-1995
11,33867	-1997
11,34933	-1998
11,36000	-1998
11,37067	-2001
11,38133	-2002
11,39200	-1998
11,40267	-2008
11,41333	-2010
11,42400	-2016
11,43467	-2014
11,44533	-2016
11,45600	-2020
11,46667	-2021
11,47733	-2021
11,48800	-2022
11,49867	-2024
11,50933	-2029
11,52000	-2033
11,53067	-2027
11,54133	-2033
11,55200	-2036
11,56267	-2039
11,57333	-2039
11,58400	-2044
11,59467	-2046
11,60533	-2048
11,61600	-2049
11,62667	-2053
11,63733	-2055
11,64800	-2057
11,65867	-2055
11,66933	-2060
11,68000	-2063
11,69067	-2065
11,70133	-2066
11,71200	-2064
11,72267	-2069
11,73333	-2074
11,74400	-2068
11,75467	-2072
11,76533	-2075
11,77600	-2069
11,78667	-2071
11,79733	-2074
11,80800	-2076
11,81867	-2078
11,82933	-2077
11,84000	-2083
11,85067	-2082
11,86133	-2086
11,87200	-2086
11,88267	-2082
11,89333	-2082
11,90400	-2087
11,91467	-2093
11,92533	-2093
11,93600	-2095
11,94667	-2096
11,95733	-2096
11,96800	-2101
11,97867	-2097
11,98933	-2098
12,00000	-2103
12,01067	-2107
12,02133	-2109
12,03200	-2113
12,04267	-2107
12,05333	-2109
12,06400	-2112
12,07467	-2111
12,08533	-2109
12,09600	-2109
12,10667	-2111
12,11733	-2114
12,12800	-2112
12,13867	-2111
12,14933	-2110
12,16000	-2111
12,17067	-2111
12,18133	-2111
12,19200	-2114
12,20267	-2113
12,21333	-2114
12,22400	-2107
12,23467	-2109
12,24533	-2107
12,25600	-2106
12,26667	-2104
12,27733	-2100
12,28800	-2104
12,29867	-2101
12,30933	-2092
12,32000	-2094
12,33067	-2092
12,34133	-2085
12,35200	-2089
12,36267	-2087
12,37333	-2093
12,38400	-2088
12,39467	-2085
12,40533	-2086
12,41600	-2085
12,42667	-2087
12,43733	-2085
12,44800	-2085
12,45867	-2078
12,46933	-2080
12,48000	-2082
12,49067	-2076
12,50133	-2072
12,51200	-2064
12,52267	-2059
12,53333	-2052
12,54400	-2046
12,55467	-2044
12,56533	-2050
12,57600	-2046
12,58667	-2052
12,59733	-2060
12,60800	-2065
12,61867	-2073
12,62933	-2076
12,64000	-2084
12,65067	-2084
12,66133	-2088
12,67200	-2094
12,68267	-2100
12,69333	-2102
12,70400	-2109
12,71467	-2108
12,72533	-2109
12,73600	-2110
12,74667	-2112
12,75733	-2118
12,76800	-2117
12,77867	-2119
12,78933	-2125
12,80000	-2122
12,81067	-2121
12,82133	-2122
12,83200	-2123
12,84267	-2121
12,85333	-2115
12,86400	-2112
12,87467	-2109
12,88533	-2106
12,89600	-2102
12,90667	-2099
12,91733	-2098
12,92800	-2100
12,93867	-2097
12,94933	-2102
12,96000	-2106
12,97067	-2109
12,98133	-2116
12,99200	-2123
13,00267	-2126
13,01333	-2129
13,02400	-2134
13,03467	-2139
13,04533	-2141
13,05600	-2143
13,06667	-2149
13,07733	-2152
13,08800	-2158
13,09867	-2160
13,10933	-2168
13,12000	-2172
13,13067	-2172
13,14133	-2179
13,15200	-2177
13,16267	-2178
13,17333	-2177
13,18400	-2181
13,19467	-2179
13,20533	-2183
13,21600	-2184
13,22667	-2187
13,23733	-2187
13,24800	-2193
13,25867	-2192
13,26933	-2194
13,28000	-2194
13,29067	-2183
13,30133	-2181
13,31200	-2170
13,32267	-2155
13,33333	-2127
13,34400	-2101
13,35467	-2073
13,36533	-2058
13,37600	-2046
13,38667	-2041
13,39733	-2044
13,40800	-2055
13,41867	-2079
13,42933	-2105
13,44000	-2126
13,45067	-2146
13,46133	-2163
13,47200	-2177
13,48267	-2189
13,49333	-2195
13,50400	-2206
13,51467	-2214
13,52533	-2225
13,53600	-2224
13,54667	-2225
13,55733	-2226
13,56800	-2231
13,57867	-2234
13,58933	-2231
13,60000	-2231
13,61067	-2229
13,62133	-2232
13,63200	-2235
13,64267	-2232
13,65333	-2226
13,66400	-2221
13,67467	-2220
13,68533	-2217
13,69600	-2218
13,70667	-2221
13,71733	-2219
13,72800	-2225
13,73867	-2224
13,74933	-2227
13,76000	-2227
13,77067	-2225
13,78133	-2230
13,79200	-2233
13,80267	-2230
13,81333	-2227
13,82400	-2234
13,83467	-2228
13,84533	-2229
13,85600	-2228
13,86667	-2223
13,87733	-2224
13,88800	-2222
13,89867	-2227
13,90933	-2223
13,92000	-2225
13,93067	-2228
13,94133	-2223
13,95200	-2225
13,96267	-2229
13,97333	-2228
13,98400	-2236
13,99467	-2238
14,00533	-2236
14,01600	-2236
14,02667	-2242
14,03733	-2244
14,04800	-2238
14,05867	-2247
14,06933	-2248
14,08000	-2248
14,09067	-2254
14,10133	-2252
14,11200	-2249
14,12267	-2251
14,13333	-2251
14,14400	-2254
14,15467	-2250
14,16533	-2251
14,17600	-2253
14,18667	-2244
14,19733	-2250
14,20800	-2250
14,21867	-2249
14,22933	-2245
14,24000	-2246
14,25067	-2242
14,26133	-2243
14,27200	-2243
14,28267	-2241
14,29333	-2241
14,30400	-2243
14,31467	-2241
14,32533	-2240
14,33600	-2238
14,34667	-2239
14,35733	-2238
14,36800	-2237
14,37867	-2234
14,38933	-2228
14,40000	-2224
14,41067	-2218
14,42133	-2211
14,43200	-2209
14,44267	-2201
14,45333	-2199
14,46400	-2188
14,47467	-2181
14,48533	-2173
14,49600	-2167
14,50667	-2162
14,51733	-2158
14,52800	-2160
14,53867	-2166
14,54933	-2168
14,56000	-2169
14,57067	-2177
14,58133	-2184
14,59200	-2185
14,60267	-2188
14,61333	-2191
14,62400	-2190
14,63467	-2190
14,64533	-2183
14,65600	-2182
14,66667	-2180
14,67733	-2178
14,68800	-2169
14,69867	-2164
14,70933	-2150
14,72000	-2132
14,73067	-2106
14,74133	-2073
14,75200	-2036
14,76267	-2000
14,77333	-1960
14,78400	-1921
14,79467	-1878
14,80533	-1844
14,81600	-1798
14,82667	-1718
14,83733	-1535
14,84800	-1196
14,85867	-648
14,86933	116
14,88000	1042
14,89067	2042
14,90133	3049
14,91200	3945
14,92267	4579
14,93333	4805
14,94400	4558
14,95467	3920
14,96533	3054
14,97600	2133
14,98667	1285
14,99733	577
15,00800	30
15,01867	-344
15,02933	-541
15,04000	-546
15,05067	-339
15,06133	43
15,07200	561
15,08267	1160
15,09333	1799
15,10400	2503
15,11467	3477
15,12533	5417
15,13600	9751
15,14667	18193
15,15733	31647
15,16800	49993
15,17867	72374
15,18933	97129
15,20000	121855
15,21067	143131
15,22133	156811
15,23200	160366
15,24267	154045
15,25333	139952
15,26400	121380
15,27467	101461
15,28533	82267
15,29600	65124
15,30667	50773
15,31733	39159
15,32800	29875
15,33867	22589
15,34933	16933
15,36000	12531
15,37067	9118
15,38133	6503
15,39200	4515
15,40267	3021
15,41333	1919
15,42400	1117
15,43467	555
15,44533	189
15,45600	-30
15,46667	-110
15,47733	-93
15,48800	8
15,49867	163
15,50933	339
15,52000	521
15,53067	667
15,54133	734
15,55200	706
15,56267	562
15,57333	358
15,58400	141
15,59467	-72
15,60533	-232
15,61600	-346
15,62667	-404
15,63733	-443
15,64800	-455
15,65867	-434
15,66933	-389
15,68000	-351
15,69067	-319
15,70133	-290
15,71200	-271
15,72267	-277
15,73333	-312
15,74400	-372
15,75467	-449
15,76533	-520
15,77600	-555
15,78667	-524
15,79733	-408
15,80800	-221
15,81867	25
15,82933	306
15,84000	589
15,85067	841
15,86133	1012
15,87200	1093
15,88267	1056
15,89333	930
15,90400	742
15,91467	543
15,92533	326
15,93600	122
15,94667	-78
15,95733	-256
15,96800	-421
15,97867	-561
15,98933	-673
16,00000	-750
16,01067	-806
16,02133	-827
16,03200	-838
16,04267	-841
16,05333	-863
16,06400	-915
16,07467	-993
16,08533	-1091
16,09600	-1191
16,10667	-1290
16,11733	-1371
16,12800	-1440
16,13867	-1487
16,14933	-1532
16,16000	-1565
16,17067	-1591
16,18133	-1615
16,19200	-1643
16,20267	-1674
16,21333	-1698
16,22400	-1696
16,23467	-1642
16,24533	-1518
16,25600	-1318
16,26667	-1059
16,27733	-753
16,28800	-417
16,29867	-78
16,30933	223
16,32000	434
16,33067	502
16,34133	422
16,35200	231
16,36267	-33
16,37333	-329
16,38400	-609
16,39467	-862
16,40533	-1083
16,41600	-1274
16,42667	-1431
16,43733	-1561
16,44800	-1667
16,45867	-1750
16,46933	-1817
16,48000	-1872
16,49067	-1886
16,50133	-1925
16,51200	-1956
16,52267	-1976
16,53333	-1985
16,54400	-2000
16,55467	-2007
16,56533	-2019
16,57600	-2036
16,58667	-2046
16,59733	-2053
16,60800	-2063
16,61867	-2072
16,62933	-2068
16,64000	-2061
16,65067	-2050
16,66133	-2033
16,67200	-2019
16,68267	-2010
16,69333	-2005
16,70400	-2009
16,71467	-2020
16,72533	-2038
16,73600	-2060
16,74667	-2090
16,75733	-2122
16,76800	-2148
16,77867	-2174
16,78933	-2202
16,80000	-2224
16,81067	-2241
16,82133	-2249
16,83200	-2255
16,84267	-2265
16,85333	-2273
16,86400	-2284
16,87467	-2293
16,88533	-2295
16,89600	-2295
16,90667	-2298
16,91733	-2300
16,92800	-2305
16,93867	-2312
16,94933	-2310
16,96000	-2306
16,97067	-2307
16,98133	-2311
16,99200	-2315
17,00267	-2311
17,01333	-2315
17,02400	-2314
17,03467	-2314
17,04533	-2314
17,05600	-2310
17,06667	-2313
17,07733	-2319
17,08800	-2322
17,09867	-2322
17,10933	-2326
17,12000	-2318
17,13067	-2325
17,14133	-2321
17,15200	-2327
17,16267	-2323
17,17333	-2325
17,18400	-2323
17,19467	-2327
17,20533	-2326
17,21600	-2326
17,22667	-2327
17,23733	-2331
17,24800	-2331
17,25867	-2332
17,26933	-2330
17,28000	-2328
17,29067	-2325
17,30133	-2319
17,31200	-2320
17,32267	-2316
17,33333	-2307
17,34400	-2304
17,35467	-2303
17,36533	-2305
17,37600	-2303
17,38667	-2305
17,39733	-2307
17,40800	-2311
17,41867	-2315
17,42933	-2323
17,44000	-2324
17,45067	-2323
17,46133	-2321
17,47200	-2323
17,48267	-2331
17,49333	-2327
17,50400	-2324
17,51467	-2321
17,52533	-2316
17,53600	-2316
17,54667	-2313
17,55733	-2307
17,56800	-2308
17,57867	-2309
17,58933	-2307
17,60000	-2305
17,61067	-2305
17,62133	-2298
17,63200	-2297
17,64267	-2297
17,65333	-2292
17,66400	-2291
17,67467	-2288
17,68533	-2290
17,69600	-2287
17,70667	-2282
17,71733	-2281
17,72800	-2276
17,73867	-2282
17,74933	-2278
17,76000	-2281
17,77067	-2283
17,78133	-2281
17,79200	-2283
17,80267	-2282
17,81333	-2286
17,82400	-2286
17,83467	-2289
17,84533	-2288
17,85600	-2289
17,86667	-2292
17,87733	-2289
17,88800	-2296
17,89867	-2297
17,90933	-2293
17,92000	-2292
17,93067	-2293
17,94133	-2296
17,95200	-2288
17,96267	-2291
17,97333	-2295
17,98400	-2298
17,99467	-2297
18,00533	-2296
18,01600	-2302
18,02667	-2307
18,03733	-2302
18,04800	-2299
18,05867	-2289
18,06933	-2289
18,08000	-2286
18,09067	-2283
18,10133	-2277
18,11200	-2269
18,12267	-2266
18,13333	-2257
18,14400	-2252
18,15467	-2252
18,16533	-2248
18,17600	-2247
18,18667	-2252
18,19733	-2254
18,20800	-2260
18,21867	-2269
18,22933	-2281
18,24000	-2286
18,25067	-2295
18,26133	-2302
18,27200	-2307
18,28267	-2310
18,29333	-2312
18,30400	-2313
18,31467	-2318
18,32533	-2322
18,33600	-2318
18,34667	-2316
18,35733	-2313
18,36800	-2312
18,37867	-2311
18,38933	-2314
18,40000	-2314
18,41067	-2308
18,42133	-2297
18,43200	-2291
18,44267	-2293
18,45333	-2287
18,46400	-2278
18,47467	-2272
18,48533	-2259
18,49600	-2258
18,50667	-2258
18,51733	-2260
18,52800	-2261
18,53867	-2259
18,54933	-2259
18,56000	-2265
18,57067	-2268
18,58133	-2272
18,59200	-2275
18,60267	-2281
18,61333	-2289
18,62400	-2290
18,63467	-2288
18,64533	-2290
18,65600	-2289
18,66667	-2287
18,67733	-2295
18,68800	-2294
18,69867	-2296
18,70933	-2297
18,72000	-2300
18,73067	-2301
18,74133	-2305
18,75200	-2300
18,76267	-2303
18,77333	-2302
18,78400	-2304
18,79467	-2302
18,80533	-2305
18,81600	-2305
18,82667	-2309
18,83733	-2311
18,84800	-2310
18,85867	-2307
18,86933	-2310
18,88000	-2306
18,89067	-2309
18,90133	-2311
18,91200	-2309
18,92267	-2306
18,93333	-2308
18,94400	-2308
18,95467	-2308
18,96533	-2303
18,97600	-2303
18,98667	-2301
18,99733	-2303
19,00800	-2302
19,01867	-2302
19,02933	-2304
19,04000	-2301
19,05067	-2297
19,06133	-2297
19,07200	-2295
19,08267	-2297
19,09333	-2290
19,10400	-2285
19,11467	-2276
19,12533	-2264
19,13600	-2248
19,14667	-2230
19,15733	-2211
19,16800	-2183
19,17867	-2152
19,18933	-2117
19,20000	-2077
19,21067	-2048
19,22133	-2011
19,23200	-1972
19,24267	-1930
19,25333	-1889
19,26400	-1847
19,27467	-1791
19,28533	-1731
19,29600	-1672
19,30667	-1609
19,31733	-1543
19,32800	-1488
19,33867	-1438
19,34933	-1405
19,36000	-1389
19,37067	-1400
19,38133	-1422
19,39200	-1466
19,40267	-1517
19,41333	-1574
19,42400	-1633
19,43467	-1694
19,44533	-1747
19,45600	-1794
19,46667	-1837
19,47733	-1874
19,48800	-1911
19,49867	-1939
19,50933	-1963
19,52000	-1987
19,53067	-2005
19,54133	-2016
19,55200	-2039
19,56267	-2055
19,57333	-2062
19,58400	-2077
19,59467	-2088
19,60533	-2095
19,61600	-2100
19,62667	-2106
19,63733	-2112
19,64800	-2116
19,65867	-2122
19,66933	-2126
19,68000	-2135
19,69067	-2140
19,70133	-2141
19,71200	-2143
19,72267	-2143
19,73333	-2149
19,74400	-2148
19,75467	-2149
19,76533	-2150
19,77600	-2153
19,78667	-2153
19,79733	-2152
19,80800	-2154
19,81867	-2153
19,82933	-2155
19,84000	-2157
19,85067	-2155
19,86133	-2159
19,87200	-2153
19,88267	-2148
19,89333	-2146
19,90400	-2136
19,91467	-2141
19,92533	-2146
19,93600	-2146
19,94667	-2149
19,95733	-2151
19,96800	-2153
19,97867	-2152
19,98933	-2161
20,00000	-2163
20,01067	-2166
20,02133	-2162
20,03200	-2166
20,04267	-2174
20,05333	-2172
20,06400	-2163
20,07467	-2161
20,08533	-2168
20,09600	-2178
20,10667	-2173
20,11733	-2170
20,12800	-2169
20,13867	-2165
20,14933	-2165
20,16000	-2165
20,17067	-2165
20,18133	-2158
20,19200	-2160
20,20267	-2167
20,21333	-2161
20,22400	-2161
20,23467	-2160
20,24533	-2161
20,25600	-2165
20,26667	-2165
20,27733	-2161
20,28800	-2163
20,29867	-2165
20,30933	-2159
20,32000	-2159
20,33067	-2156
20,34133	-2155
20,35200	-2158
20,36267	-2159
20,37333	-2154
20,38400	-2155
20,39467	-2158
20,40533	-2152
20,41600	-2151
20,42667	-2155
20,43733	-2153
20,44800	-2149
20,45867	-2151
20,46933	-2150
20,48000	-2147
20,49067	-2145
20,50133	-2143
20,51200	-2138
20,52267	-2135
20,53333	-2131
20,54400	-2130
20,55467	-2131
20,56533	-2130
20,57600	-2130
20,58667	-2128
20,59733	-2126
20,60800	-2131
20,61867	-2135
20,62933	-2136
20,64000	-2136
20,65067	-2133
20,66133	-2139
20,67200	-2141
20,68267	-2139
20,69333	-2136
20,70400	-2133
20,71467	-2140
20,72533	-2132
20,73600	-2133
20,74667	-2133
20,75733	-2136
20,76800	-2132
20,77867	-2133
20,78933	-2137
20,80000	-2136
20,81067	-2135
20,82133	-2135
20,83200	-2138
20,84267	-2140
20,85333	-2140
20,86400	-2141
20,87467	-2140
20,88533	-2141
20,89600	-2137
20,90667	-2134
20,91733	-2137
20,92800	-2136
20,93867	-2129
20,94933	-2124
20,96000	-2117
20,97067	-2109
20,98133	-2101
20,99200	-2096
21,00267	-2091
21,01333	-2085
21,02400	-2074
21,03467	-2066
21,04533	-2058
21,05600	-2044
21,06667	-2031
21,07733	-2038
21,08800	-2041
21,09867	-2039
21,10933	-2041
21,12000	-2040
21,13067	-2048
21,14133	-2048
21,15200	-2051
21,16267	-2060
21,17333	-2056
21,18400	-2056
21,19467	-2058
21,20533	-2057
21,21600	-2065
21,22667	-2066
21,23733	-2066
21,24800	-2076
21,25867	-2075
21,26933	-2076
21,28000	-2080
21,29067	-2080
21,30133	-2080
21,31200	-2079
21,32267	-2078
21,33333	-2075
21,34400	-2077
21,35467	-2075
21,36533	-2070
21,37600	-2065
21,38667	-2065
21,39733	-2061
21,40800	-2061
21,41867	-2060
21,42933	-2058
21,44000	-2060
21,45067	-2059
21,46133	-2061
21,47200	-2056
21,48267	-2057
21,49333	-2060
21,50400	-2063
21,51467	-2060
21,52533	-2066
21,53600	-2065
21,54667	-2063
21,55733	-2055
21,56800	-2061
21,57867	-2065
21,58933	-2059
21,60000	-2062
21,61067	-2057
21,62133	-2048
21,63200	-2045
21,64267	-2042
21,65333	-2042
21,66400	-2035
21,67467	-2028
21,68533	-2026
21,69600	-2018
21,70667	-2016
21,71733	-2008
21,72800	-2007
21,73867	-2007
21,74933	-2003
21,76000	-1994
21,77067	-1992
21,78133	-1989
21,79200	-1985
21,80267	-1981
21,81333	-1980
21,82400	-1975
21,83467	-1977
21,84533	-1980
21,85600	-1982
21,86667	-1976
21,87733	-1976
21,88800	-1981
21,89867	-1984
21,90933	-1984
21,92000	-1981
21,93067	-1975
21,94133	-1973
21,95200	-1970
21,96267	-1972
21,97333	-1967
21,98400	-1966
21,99467	-1964
22,00533	-1962
22,01600	-1964
22,02667	-1969
22,03733	-1965
22,04800	-1969
22,05867	-1974
22,06933	-1968
22,08000	-1967
22,09067	-1968
22,10133	-1964
22,11200	-1959
22,12267	-1959
22,13333	-1951
22,14400	-1946
22,15467	-1949
22,16533	-1946
22,17600	-1945
22,18667	-1943
22,19733	-1948
22,20800	-1955
22,21867	-1959
22,22933	-1962
22,24000	-1966
22,25067	-1972
22,26133	-1974
22,27200	-1974
22,28267	-1975
22,29333	-1970
22,30400	-1975
22,31467	-1969
22,32533	-1970
22,33600	-1970
22,34667	-1970
22,35733	-1967
22,36800	-1965
22,37867	-1966
22,38933	-1968
22,40000	-1969
22,41067	-1963
22,42133	-1965
22,43200	-1968
22,44267	-1969
22,45333	-1969
22,46400	-1968
22,47467	-1964
22,48533	-1970
22,49600	-1968
22,50667	-1973
22,51733	-1972
22,52800	-1970
22,53867	-1967
22,54933	-1967
22,56000	-1962
22,57067	-1953
22,58133	-1947
22,59200	-1945
22,60267	-1932
22,61333	-1930
22,62400	-1917
22,63467	-1917
22,64533	-1906
22,65600	-1898
22,66667	-1890
22,67733	-1886
22,68800	-1883
22,69867	-1883
22,70933	-1879
22,72000	-1877
22,73067	-1876
22,74133	-1876
22,75200	-1874
22,76267	-1872
22,77333	-1870
22,78400	-1873
22,79467	-1863
22,80533	-1862
22,81600	-1855
22,82667	-1851
22,83733	-1848
22,84800	-1845
22,85867	-1842
22,86933	-1842
22,88000	-1842
22,89067	-1843
22,90133	-1843
22,91200	-1841
22,92267	-1837
22,93333	-1841
22,94400	-1837
22,95467	-1830
22,96533	-1820
22,97600	-1814
22,98667	-1807
22,99733	-1794
23,00800	-1785
23,01867	-1772
23,02933	-1761
23,04000	-1758
23,05067	-1754
23,06133	-1742
23,07200	-1743
23,08267	-1739
23,09333	-1736
23,10400	-1739
23,11467	-1736
23,12533	-1738
23,13600	-1735
23,14667	-1738
23,15733	-1734
23,16800	-1734
23,17867	-1729
23,18933	-1736
23,20000	-1746
23,21067	-1742
23,22133	-1751
23,23200	-1749
23,24267	-1751
23,25333	-1760
23,26400	-1763
23,27467	-1761
23,28533	-1762
23,29600	-1763
23,30667	-1764
23,31733	-1758
23,32800	-1757
23,33867	-1759
23,34933	-1756
23,36000	-1755
23,37067	-1757
23,38133	-1757
23,39200	-1754
23,40267	-1753
23,41333	-1757
23,42400	-1762
23,43467	-1760
23,44533	-1760
23,45600	-1759
23,46667	-1763
23,47733	-1768
23,48800	-1767
23,49867	-1768
23,50933	-1765
23,52000	-1768
23,53067	-1773
23,54133	-1774
23,55200	-1779
23,56267	-1779
23,57333	-1786
23,58400	-1788
23,59467	-1791
23,60533	-1795
23,61600	-1800
23,62667	-1804
23,63733	-1801
23,64800	-1795
23,65867	-1796
23,66933	-1796
23,68000	-1801
23,69067	-1795
23,70133	-1794
23,71200	-1788
23,72267	-1788
23,73333	-1785
23,74400	-1780
23,75467	-1773
23,76533	-1765
23,77600	-1764
23,78667	-1751
23,79733	-1741
23,80800	-1733
23,81867	-1723
23,82933	-1715
23,84000	-1710
23,85067	-1699
23,86133	-1692
23,87200	-1684
23,88267	-1683
23,89333	-1682
23,90400	-1682
23,91467	-1688
23,92533	-1694
23,93600	-1696
23,94667	-1703
23,95733	-1706
23,96800	-1708
23,97867	-1710
23,98933	-1718
24,00000	-1716
24,01067	-1713
24,02133	-1716
24,03200	-1714
24,04267	-1718
24,05333	-1719
24,06400	-1721
24,07467	-1729
24,08533	-1730
24,09600	-1731
24,10667	-1735
24,11733	-1735
24,12800	-1732
24,13867	-1732
24,14933	-1729
24,16000	-1729
24,17067	-1729
24,18133	-1724
24,19200	-1725
24,20267	-1720
24,21333	-1720
24,22400	-1722
24,23467	-1711
24,24533	-1708
24,25600	-1706
24,26667	-1704
24,27733	-1698
24,28800	-1692
24,29867	-1686
24,30933	-1676
24,32000	-1670
24,33067	-1658
24,34133	-1643
24,35200	-1637
24,36267	-1626
24,37333	-1607
24,38400	-1594
24,39467	-1581
24,40533	-1574
24,41600	-1558
24,42667	-1545
24,43733	-1532
24,44800	-1522
24,45867	-1518
24,46933	-1511
24,48000	-1504
24,49067	-1496
24,50133	-1490
24,51200	-1494
24,52267	-1500
24,53333	-1505
24,54400	-1507
24,55467	-1506
24,56533	-1509
24,57600	-1513
24,58667	-1516
24,59733	-1523
24,60800	-1525
24,61867	-1528
24,62933	-1539
24,64000	-1545
24,65067	-1546
24,66133	-1552
24,67200	-1555
24,68267	-1560
24,69333	-1568
24,70400	-1569
24,71467	-1575
24,72533	-1575
24,73600	-1579
24,74667	-1586
24,75733	-1584
24,76800	-1587
24,77867	-1590
24,78933	-1592
24,80000	-1595
24,81067	-1602
24,82133	-1590
24,83200	-1572
24,84267	-1588
24,85333	-1597
24,86400	-1605
24,87467	-1606
24,88533	-1603
24,89600	-1604
24,90667	-1606
24,91733	-1608
24,92800	-1608
24,93867	-1605
24,94933	-1606
24,96000	-1610
24,97067	-1608
24,98133	-1612
24,99200	-1611
25,00267	-1611
25,01333	-1610
25,02400	-1609
25,03467	-1609
25,04533	-1606
25,05600	-1608
25,06667	-1604
25,07733	-1604
25,08800	-1603
25,09867	-1603
25,10933	-1600
25,12000	-1601
25,13067	-1599
25,14133	-1599
25,15200	-1602
25,16267	-1595
25,17333	-1598
25,18400	-1600
25,19467	-1594
25,20533	-1593
25,21600	-1591
25,22667	-1588
25,23733	-1588
25,24800	-1587
25,25867	-1587
25,26933	-1583
25,28000	-1580
25,29067	-1580
25,30133	-1571
25,31200	-1576
25,32267	-1573
25,33333	-1570
25,34400	-1565
25,35467	-1562
25,36533	-1566
25,37600	-1565
25,38667	-1565
25,39733	-1557
25,40800	-1552
25,41867	-1550
25,42933	-1549
25,44000	-1550
25,45067	-1548
25,46133	-1541
25,47200	-1534
25,48267	-1539
25,49333	-1533
25,50400	-1530
25,51467	-1523
25,52533	-1519
25,53600	-1519
25,54667	-1514
25,55733	-1513
25,56800	-1508
25,57867	-1504
25,58933	-1507
25,60000	-1503
25,61067	-1509
25,62133	-1502
25,63200	-1500
25,64267	-1497
25,65333	-1498
25,66400	-1499
25,67467	-1500
25,68533	-1496
25,69600	-1503
25,70667	-1502
25,71733	-1503
25,72800	-1501
25,73867	-1499
25,74933	-1502
25,76000	-1501
25,77067	-1496
25,78133	-1497
25,79200	-1500
25,80267	-1498
25,81333	-1498
25,82400	-1497
25,83467	-1493
25,84533	-1498
25,85600	-1494
25,86667	-1491
25,87733	-1490
25,88800	-1494
25,89867	-1497
25,90933	-1498
25,92000	-1492
25,93067	-1488
25,94133	-1487
25,95200	-1483
25,96267	-1483
25,97333	-1480
25,98400	-1477
25,99467	-1470
26,00533	-1469
26,01600	-1460
26,02667	-1454
26,03733	-1444
26,04800	-1436
26,05867	-1417
26,06933	-1393
26,08000	-1365
26,09067	-1344
26,10133	-1314
26,11200	-1279
26,12267	-1239
26,13333	-1212
26,14400	-1175
26,15467	-1132
26,16533	-1100
26,17600	-1069
26,18667	-1036
26,19733	-1006
26,20800	-986
26,21867	-978
26,22933	-976
26,24000	-991
26,25067	-1005
26,26133	-1029
26,27200	-1059
26,28267	-1094
26,29333	-1128
26,30400	-1153
26,31467	-1174
26,32533	-1199
26,33600	-1204
26,34667	-1221
26,35733	-1234
26,36800	-1244
26,37867	-1251
26,38933	-1258
26,40000	-1274
26,41067	-1279
26,42133	-1281
26,43200	-1286
26,44267	-1292
26,45333	-1297
26,46400	-1303
26,47467	-1302
26,48533	-1298
26,49600	-1302
26,50667	-1298
26,51733	-1299
26,52800	-1297
26,53867	-1295
26,54933	-1297
26,56000	-1295
26,57067	-1288
26,58133	-1288
26,59200	-1284
26,60267	-1286
26,61333	-1280
26,62400	-1278
26,63467	-1276
26,64533	-1274
26,65600	-1274
26,66667	-1268
26,67733	-1271
26,68800	-1270
26,69867	-1271
26,70933	-1270
26,72000	-1270
26,73067	-1269
26,74133	-1269
26,75200	-1272
26,76267	-1274
26,77333	-1274
26,78400	-1275
26,79467	-1274
26,80533	-1278
26,81600	-1274
26,82667	-1275
26,83733	-1270
26,84800	-1274
26,85867	-1273
26,86933	-1274
26,88000	-1268
26,89067	-1265
26,90133	-1268
26,91200	-1269
26,92267	-1266
26,93333	-1263
26,94400	-1260
26,95467	-1256
26,96533	-1257
26,97600	-1252
26,98667	-1252
26,99733	-1256
27,00800	-1252
27,01867	-1251
27,02933	-1251
27,04000	-1249
27,05067	-1247
27,06133	-1247
27,07200	-1246
27,08267	-1241
27,09333	-1239
27,10400	-1238
27,11467	-1238
27,12533	-1231
27,13600	-1234
27,14667	-1227
27,15733	-1226
27,16800	-1222
27,17867	-1221
27,18933	-1219
27,20000	-1221
27,21067	-1218
27,22133	-1215
27,23200	-1208
27,24267	-1211
27,25333	-1208
27,26400	-1207
27,27467	-1204
27,28533	-1201
27,29600	-1194
27,30667	-1197
27,31733	-1198
27,32800	-1194
27,33867	-1194
27,34933	-1190
27,36000	-1183
27,37067	-1183
27,38133	-1179
27,39200	-1178
27,40267	-1173
27,41333	-1169
27,42400	-1161
27,43467	-1152
27,44533	-1138
27,45600	-1120
27,46667	-1097
27,47733	-1075
27,48800	-1054
27,49867	-1028
27,50933	-1005
27,52000	-973
27,53067	-953
27,54133	-925
27,55200	-894
27,56267	-873
27,57333	-855
27,58400	-839
27,59467	-827
27,60533	-816
27,61600	-815
27,62667	-826
27,63733	-840
27,64800	-865
27,65867	-885
27,66933	-908
27,68000	-924
27,69067	-936
27,70133	-952
27,71200	-965
27,72267	-973
27,73333	-981
27,74400	-983
27,75467	-984
27,76533	-985
27,77600	-981
27,78667	-981
27,79733	-984
27,80800	-981
27,81867	-973
27,82933	-969
27,84000	-973
27,85067	-968
27,86133	-962
27,87200	-957
27,88267	-957
27,89333	-950
27,90400	-953
27,91467	-953
27,92533	-953
27,93600	-950
27,94667	-959
27,95733	-955
27,96800	-962
27,97867	-972
27,98933	-977
28,00000	-987
28,01067	-990
28,02133	-990
28,03200	-998
28,04267	-1009
28,05333	-1009
28,06400	-1006
28,07467	-1011
28,08533	-1020
28,09600	-1019
28,10667	-1015
28,11733	-1015
28,12800	-1017
28,13867	-1018
28,14933	-1016
28,16000	-1017
28,17067	-1014
28,18133	-1015
28,19200	-1014
28,20267	-1008
28,21333	-1013
28,22400	-1018
28,23467	-1018
28,24533	-1011
28,25600	-1013
28,26667	-1013
28,27733	-1019
28,28800	-1012
28,29867	-1005
28,30933	-1002
28,32000	-1013
28,33067	-1006
28,34133	-999
28,35200	-1003
28,36267	-1009
28,37333	-1006
28,38400	-1003
28,39467	-1003
28,40533	-1001
28,41600	-1007
28,42667	-1005
28,43733	-996
28,44800	-996
28,45867	-1002
28,46933	-995
28,48000	-992
28,49067	-994
28,50133	-996
28,51200	-997
28,52267	-990
28,53333	-983
28,54400	-989
28,55467	-996
28,56533	-991
28,57600	-986
28,58667	-986
28,59733	-988
28,60800	-988
28,61867	-979
28,62933	-980
28,64000	-983
28,65067	-981
28,66133	-969
28,67200	-968
28,68267	-973
28,69333	-977
28,70400	-972
28,71467	-964
28,72533	-966
28,73600	-972
28,74667	-978
28,75733	-964
28,76800	-961
28,77867	-966
28,78933	-966
28,80000	-959
28,81067	-956
28,82133	-956
28,83200	-958
28,84267	-958
28,85333	-957
28,86400	-952
28,87467	-955
28,88533	-957
28,89600	-954
28,90667	-950
28,91733	-950
28,92800	-953
28,93867	-948
28,94933	-939
28,96000	-940
28,97067	-940
28,98133	-949
28,99200	-942
29,00267	-938
29,01333	-938
29,02400	-944
29,03467	-896
29,04533	-915
29,05600	-924
29,06667	-929
29,07733	-932
29,08800	-920
29,09867	-921
29,10933	-921
29,12000	-921
29,13067	-918
29,14133	-917
29,15200	-918
29,16267	-918
29,17333	-914
29,18400	-906
29,19467	-901
29,20533	-900
29,21600	-904
29,22667	-894
29,23733	-895
29,24800	-893
29,25867	-892
29,26933	-892
29,28000	-889
29,29067	-886
29,30133	-887
29,31200	-888
29,32267	-884
29,33333	-873
29,34400	-873
29,35467	-875
29,36533	-868
29,37600	-859
29,38667	-849
29,39733	-838
29,40800	-817
29,41867	-788
29,42933	-756
29,44000	-714
29,45067	-664
29,46133	-601
29,47200	-539
29,48267	-471
29,49333	-403
29,50400	-332
29,51467	-267
29,52533	-200
29,53600	-154
29,54667	-98
29,55733	-53
29,56800	-24
29,57867	-10
29,58933	-17
29,60000	-38
29,61067	-70
29,62133	-120
29,63200	-190
29,64267	-257
29,65333	-313
29,66400	-371
29,67467	-421
29,68533	-460
29,69600	-494
29,70667	-516
29,71733	-535
29,72800	-556
29,73867	-570
29,74933	-581
29,76000	-588
29,77067	-590
29,78133	-602
29,79200	-607
29,80267	-610
29,81333	-618
29,82400	-625
29,83467	-627
29,84533	-626
29,85600	-631
29,86667	-631
29,87733	-638
29,88800	-638
29,89867	-633
29,90933	-638
29,92000	-638
29,93067	-641
29,94133	-637
29,95200	-640
29,96267	-639
29,97333	-642
29,98400	-637
29,99467	-638
30,00533	-635
30,01600	-642
30,02667	-636
30,03733	-632
30,04800	-627
30,05867	-633
30,06933	-629
30,08000	-629
30,09067	-629
30,10133	-630
30,11200	-630
30,12267	-625
30,13333	-624
30,14400	-621
30,15467	-614
30,16533	-607
30,17600	-598
30,18667	-589
30,19733	-585
30,20800	-578
30,21867	-572
30,22933	-563
30,24000	-557
30,25067	-550
30,26133	-540
30,27200	-534
30,28267	-523
30,29333	-515
30,30400	-511
30,31467	-505
30,32533	-499
30,33600	-492
30,34667	-491
30,35733	-483
30,36800	-480
30,37867	-480
30,38933	-473
30,40000	-472
30,41067	-469
30,42133	-468
30,43200	-471
30,44267	-476
30,45333	-475
30,46400	-472
30,47467	-480
30,48533	-490
30,49600	-493
30,50667	-492
30,51733	-493
30,52800	-495
30,53867	-502
30,54933	-499
30,56000	-495
30,57067	-484
30,58133	-481
30,59200	-471
30,60267	-466
30,61333	-456
30,62400	-450
30,63467	-444
30,64533	-438
30,65600	-435
30,66667	-427
30,67733	-428
30,68800	-427
30,69867	-425
30,70933	-423
30,72000	-423
30,73067	-426
30,74133	-431
30,75200	-438
30,76267	-434
30,77333	-439
30,78400	-437
30,79467	-445
30,80533	-436
30,81600	-433
30,82667	-431
30,83733	-430
30,84800	-430
30,85867	-434
30,86933	-428
30,88000	-433
30,89067	-431
30,90133	-431
30,91200	-431
30,92267	-427
30,93333	-421
30,94400	-416
30,95467	-416
30,96533	-413
30,97600	-412
30,98667	-414
30,99733	-417
31,00800	-414
31,01867	-419
31,02933	-421
31,04000	-418
31,05067	-419
31,06133	-423
31,07200	-428
31,08267	-431
31,09333	-436
31,10400	-440
31,11467	-446
31,12533	-447
31,13600	-444
31,14667	-449
31,15733	-455
31,16800	-452
31,17867	-448
31,18933	-455
31,20000	-459
31,21067	-458
31,22133	-459
31,23200	-460
31,24267	-466
31,25333	-470
31,26400	-473
31,27467	-477
31,28533	-480
31,29600	-489
31,30667	-491
31,31733	-491
31,32800	-482
31,33867	-488
31,34933	-493
31,36000	-489
31,37067	-488
31,38133	-487
31,39200	-494
31,40267	-492
31,41333	-490
31,42400	-483
31,43467	-488
31,44533	-491
31,45600	-487
31,46667	-478
31,47733	-478
31,48800	-477
31,49867	-472
31,50933	-467
31,52000	-467
31,53067	-469
31,54133	-464
31,55200	-459
31,56267	-456
31,57333	-453
31,58400	-451
31,59467	-455
31,60533	-448
31,61600	-443
31,62667	-444
31,63733	-446
31,64800	-443
31,65867	-440
31,66933	-440
31,68000	-437
31,69067	-439
31,70133	-438
31,71200	-433
31,72267	-427
31,73333	-428
31,74400	-418
31,75467	-424
31,76533	-416
31,77600	-417
31,78667	-417
31,79733	-414
31,80800	-413
31,81867	-410
31,82933	-410
31,84000	-412
31,85067	-406
31,86133	-407
31,87200	-406
31,88267	-404
31,89333	-398
31,90400	-399
31,91467	-404
31,92533	-405
31,93600	-400
31,94667	-400
31,95733	-402
31,96800	-404
31,97867	-400
31,98933	-395
32,00000	-396
32,01067	-400
32,02133	-400
32,03200	-397
32,04267	-393
32,05333	-392
32,06400	-393
32,07467	-392
32,08533	-390
32,09600	-394
32,10667	-393
32,11733	-391
32,12800	-390
32,13867	-387
32,14933	-383
32,16000	-385
32,17067	-380
32,18133	-380
32,19200	-381
32,20267	-379
32,21333	-377
32,22400	-369
32,23467	-372
32,24533	-373
32,25600	-374
32,26667	-370
32,27733	-371
32,28800	-372
32,29867	-372
32,30933	-370
32,32000	-369
32,33067	-368
32,34133	-373
32,35200	-371
32,36267	-369
32,37333	-363
32,38400	-365
32,39467	-362
32,40533	-357
32,41600	-358
32,42667	-360
32,43733	-361
32,44800	-362
32,45867	-361
32,46933	-362
32,48000	-363
32,49067	-359
32,50133	-360
32,51200	-355
32,52267	-354
32,53333	-357
32,54400	-351
32,55467	-346
32,56533	-346
32,57600	-353
32,58667	-353
32,59733	-349
32,60800	-355
32,61867	-353
32,62933	-352
32,64000	-355
32,65067	-349
32,66133	-349
32,67200	-344
32,68267	-346
32,69333	-348
32,70400	-346
32,71467	-351
32,72533	-345
32,73600	-341
32,74667	-343
32,75733	-343
32,76800	-341
32,77867	-343
32,78933	-349
32,80000	-347
32,81067	-345
32,82133	-338
32,83200	-339
32,84267	-332
32,85333	-330
32,86400	-332
32,87467	-330
32,88533	-329
32,89600	-327
32,90667	-327
32,91733	-332
32,92800	-326
32,93867	-325
32,94933	-319
32,96000	-317
32,97067	-322
32,98133	-326
32,99200	-332
33,00267	-328
33,01333	-326
33,02400	-327
33,03467	-323
33,04533	-321
33,05600	-320
33,06667	-318
33,07733	-315
33,08800	-319
33,09867	-322
33,10933	-317
33,12000	-309
33,13067	-318
33,14133	-320
33,15200	-319
33,16267	-312
33,17333	-311
33,18400	-311
33,19467	-307
33,20533	-306
33,21600	-307
33,22667	-307
33,23733	-305
33,24800	-307
33,25867	-309
33,26933	-305
33,28000	-300
33,29067	-301
33,30133	-301
33,31200	-300
33,32267	-299
33,33333	-300
33,34400	-299
33,35467	-298
33,36533	-295
33,37600	-293
33,38667	-292
33,39733	-289
33,40800	-289
33,41867	-289
33,42933	-291
33,44000	-286
33,45067	-290
33,46133	-294
33,47200	-291
33,48267	-289
33,49333	-289
33,50400	-287
33,51467	-285
33,52533	-286
33,53600	-289
33,54667	-286
33,55733	-286
33,56800	-287
33,57867	-283
33,58933	-282
33,60000	-286
33,61067	-285
33,62133	-284
33,63200	-282
33,64267	-281
33,65333	-286
33,66400	-285
33,67467	-279
33,68533	-282
33,69600	-282
33,70667	-282
33,71733	-279
33,72800	-276
33,73867	-274
33,74933	-274
33,76000	-272
33,77067	-270
33,78133	-276
33,79200	-274
33,80267	-272
33,81333	-274
33,82400	-270
33,83467	-272
33,84533	-270
33,85600	-272
33,86667	-274
33,87733	-267
33,88800	-269
33,89867	-270
33,90933	-270
33,92000	-271
33,93067	-269
33,94133	-263
33,95200	-261
33,96267	-267
33,97333	-265
33,98400	-267
33,99467	-267
34,00533	-268
34,01600	-261
34,02667	-258
34,03733	-261
34,04800	-260
34,05867	-257
34,06933	-252
34,08000	-252
34,09067	-256
34,10133	-252
34,11200	-254
34,12267	-257
34,13333	-258
34,14400	-253
34,15467	-254
34,16533	-251
34,17600	-253
34,18667	-249
34,19733	-253
34,20800	-253
34,21867	-252
34,22933	-253
34,24000	-247
34,25067	-241
34,26133	-238
34,27200	-243
34,28267	-248
34,29333	-244
34,30400	-239
34,31467	-236
34,32533	-238
34,33600	-241
34,34667	-238
34,35733	-242
34,36800	-243
34,37867	-245
34,38933	-244
34,40000	-246
34,41067	-242
34,42133	-244
34,43200	-240
34,44267	-241
34,45333	-241
34,46400	-245
34,47467	-242
34,48533	-244
34,49600	-244
34,50667	-244
34,51733	-245
34,52800	-243
34,53867	-241
34,54933	-243
34,56000	-245
34,57067	-249
34,58133	-246
34,59200	-244
34,60267	-243
34,61333	-247
34,62400	-240
34,63467	-245
34,64533	-243
34,65600	-246
34,66667	-241
34,67733	-241
34,68800	-245
34,69867	-241
34,70933	-246
34,72000	-249
34,73067	-247
34,74133	-243
34,75200	-245
34,76267	-243
34,77333	-242
34,78400	-242
34,79467	-246
34,80533	-242
34,81600	-246
34,82667	-240
34,83733	-237
34,84800	-234
34,85867	-241
34,86933	-240
34,88000	-237
34,89067	-233
34,90133	-236
34,91200	-235
34,92267	-234
34,93333	-236
34,94400	-234
34,95467	-233
34,96533	-234
34,97600	-230
34,98667	-231
34,99733	-226
35,00800	-228
35,01867	-227
35,02933	-226
35,04000	-223
35,05067	-226
35,06133	-226
35,07200	-229
35,08267	-231
35,09333	-232
35,10400	-226
35,11467	-226
35,12533	-224
35,13600	-228
35,14667	-233
35,15733	-234
35,16800	-229
35,17867	-226
35,18933	-227
35,20000	-234
35,21067	-229
35,22133	-230
35,23200	-229
35,24267	-227
35,25333	-226
35,26400	-226
35,27467	-228
35,28533	-225
35,29600	-227
35,30667	-228
35,31733	-226
35,32800	-226
35,33867	-224
35,34933	-226
35,36000	-222
35,37067	-221
35,38133	-224
35,39200	-225
35,40267	-217
35,41333	-223
35,42400	-222
35,43467	-218
35,44533	-224
35,45600	-223
35,46667	-219
35,47733	-218
35,48800	-217
35,49867	-217
35,50933	-218
35,52000	-217
35,53067	-216
35,54133	-211
35,55200	-207
35,56267	-203
35,57333	-211
35,58400	-210
35,59467	-209
35,60533	-207
35,61600	-209
35,62667	-210
35,63733	-211
35,64800	-206
35,65867	-207
35,66933	-204
35,68000	-202
35,69067	-198
35,70133	-203
35,71200	-204
35,72267	-207
35,73333	-208
35,74400	-198
35,75467	-195
35,76533	-195
35,77600	-196
35,78667	-201
35,79733	-200
35,80800	-203
35,81867	-199
35,82933	-199
35,84000	-199
35,85067	-201
35,86133	-199
35,87200	-201
35,88267	-200
35,89333	-194
35,90400	-196
35,91467	-201
35,92533	-201
35,93600	-200
35,94667	-200
35,95733	-194
35,96800	-196
35,97867	-194
35,98933	-199
36,00000	-200
36,01067	-197
36,02133	-197


