[Header]
Application Name	LabSolutions
Version	5.71
Data File Name	C:\LabSolutions\Data\Project1\Daniel Moreira\COMPOUND1\2025.07.03_compound1_1_001.lcd
Output Date	02/01/2013
Output Time	20:54:15

[File Information]
Type	Data File
Generated	02/01/2013 14:47:13
Generated by	System Administrator
Modified	02/01/2013 17:45:02
Modified by	System Administrator

[Sample Information]
Operator Name	System Administrator
Acquired	02/01/2013 14:47:38
Sample Type	0:Unknown
Level	0
Sample Name	compound1
Sample ID	compound1
ISTD Amount1	1
ISTD Amount2	1
ISTD Amount3	1
ISTD Amount4	1
ISTD Amount5	1
ISTD Amount6	1
ISTD Amount7	1
ISTD Amount8	1
ISTD Amount9	1
ISTD Amount10	1
ISTD Amount11	1
ISTD Amount12	1
ISTD Amount13	1
ISTD Amount14	1
ISTD Amount15	1
ISTD Amount16	1
ISTD Amount17	1
ISTD Amount18	1
ISTD Amount19	1
ISTD Amount20	1
ISTD Amount21	1
ISTD Amount22	1
ISTD Amount23	1
ISTD Amount24	1
ISTD Amount25	1
ISTD Amount26	1
ISTD Amount27	1
ISTD Amount28	1
ISTD Amount29	1
ISTD Amount30	1
ISTD Amount31	1
ISTD Amount32	1
Sample Amount	1
Dilution Factor	1
Vial#	49
Injection Volume	25

[Original Files]
Data File	C:\LabSolutions\Data\Project1\Daniel Moreira\COMPOUND1\2025.07.03_compound1_1_001.lcd
Method File	C:\LabSolutions\Data\Project1\Daniel Moreira\COMPOUND1.lcm
Batch File	C:\LabSolutions\Data\Project1\Daniel Moreira\COMPOUND1\2025.07.03_compound1.lcb
Report Format File	C:\LabSolutions\System\DEFAULT.lsr

[File Description]


[Configuration]
Instrument Name	HPLC-PC-Instrument
Instrument #	2
Line #	1
# of Detectors	1
Detector ID	PDA
Detector Name	PDA
# of Channels	1

[Peak Table(PDA-Ch2)]
# of Peaks	20
Peak#	R.Time	I.Time	F.Time	Area	Height	A/H	Conc.	Mark	ID#	Name	k'	Plate #	Plate Ht.	Tailing	Resolution	Sep.Factor	Area Ratio	Height Ratio	Conc. %	Norm Conc.
1	2,864	2,645	2,965	5310	608	8,734	0,311	   			0,000	2192	68,437	0,721	0,000	0,000	0	0	0,000	0,000
2	3,171	2,976	3,296	2168	187	11,589	0,127	   			0,107	1764	85,046	0,794	1,122	0,000	0	0	0,000	0,000
3	12,270	12,128	12,491	3499	393	8,912	0,205	   			3,284	40052	3,745	0,000	33,256	30,681	0	0	0,000	0,000
4	12,657	12,491	12,843	1526	162	9,436	0,089	 V 			3,419	41237	3,638	0,000	1,563	1,041	0	0	0,000	0,000
5	13,014	12,875	13,248	1642	204	8,055	0,096	   			3,544	54732	2,741	1,168	1,515	1,036	0	0	0,000	0,000
6	13,380	13,248	13,547	2958	452	6,551	0,173	   			3,671	76226	1,968	1,135	1,756	1,036	0	0	0,000	0,000
7	14,388	14,261	14,603	3477	238	14,589	0,203	   			4,024	13399	11,195	0,000	2,918	1,096	0	0	0,000	0,000
8	14,936	14,603	15,061	69912	9180	7,616	4,090	 V 			4,215	84237	1,781	0,000	1,558	1,048	0	0	0,000	0,000
9	15,236	15,061	16,907	1541939	200618	7,686	90,218	SV 			4,319	88174	1,701	1,334	1,456	1,025	0	0	0,000	0,000
10	15,549	15,488	15,637	3195	790	4,043	0,187	T  			4,429	228614	0,656	1,129	1,872	1,025	0	0	0,000	0,000
11	15,716	15,648	15,787	2843	570	4,987	0,166	T  			4,487	164801	0,910	0,000	1,167	1,013	0	0	0,000	0,000
12	15,880	15,787	16,000	14690	2112	6,955	0,860	TV 			4,544	93645	1,602	0,000	0,905	1,013	0	0	0,000	0,000
13	16,057	16,000	16,181	5459	894	6,109	0,319	TV 			4,606	78760	1,905	0,000	0,814	1,014	0	0	0,000	0,000
14	16,338	16,213	16,501	14375	2128	6,755	0,841	T  			4,704	104586	1,434	1,100	1,304	1,021	0	0	0,000	0,000
15	16,727	16,651	16,853	1222	220	5,552	0,071	TV 			4,840	151791	0,988	0,000	2,080	1,029	0	0	0,000	0,000
16	19,404	19,168	19,787	15065	1204	12,517	0,881	   			5,775	55213	2,717	1,310	10,664	1,193	0	0	0,000	0,000
17	26,267	26,027	26,539	5390	454	11,875	0,315	   			8,171	110461	1,358	1,094	21,234	1,415	0	0	0,000	0,000
18	27,676	27,424	27,840	3941	323	12,208	0,231	   			8,663	108563	1,382	0,000	4,319	1,060	0	0	0,000	0,000
19	27,989	27,840	28,149	1565	123	12,718	0,092	 V 			8,772	23812	6,299	0,000	0,591	1,013	0	0	0,000	0,000
20	29,667	29,419	29,952	8953	774	11,563	0,524	   			9,358	151516	0,990	1,166	3,257	1,067	0	0	0,000	0,000

[Compound Results(PDA)]
# of IDs	0

[PDA Multi Chromatogram(Ch2)]
# of Points	      3377
Interval(msec)	640
Start Time(min)	0
End Time(min)	36,0107
Intensity Units	mAU
Intensity Multiplier	1
Type	MultiChrom
Wavelength(nm)	280
Bandwidth(nm)	4
R.Time (min)	Intensity
0,00000	0
0,01067	0
0,02133	0
0,03200	0
0,04267	0
0,05333	0
0,06400	0
0,07467	0
0,08533	0
0,09600	0
0,10667	10
0,11733	12
0,12800	11
0,13867	11
0,14933	10
0,16000	15
0,17067	18
0,18133	17
0,19200	12
0,20267	16
0,21333	17
0,22400	17
0,23467	16
0,24533	16
0,25600	17
0,26667	17
0,27733	19
0,28800	21
0,29867	21
0,30933	24
0,32000	28
0,33067	26
0,34133	22
0,35200	22
0,36267	23
0,37333	19
0,38400	21
0,39467	21
0,40533	21
0,41600	24
0,42667	27
0,43733	26
0,44800	24
0,45867	30
0,46933	29
0,48000	28
0,49067	28
0,50133	29
0,51200	28
0,52267	25
0,53333	27
0,54400	28
0,55467	23
0,56533	24
0,57600	28
0,58667	35
0,59733	31
0,60800	31
0,61867	28
0,62933	34
0,64000	32
0,65067	33
0,66133	31
0,67200	26
0,68267	26
0,69333	30
0,70400	28
0,71467	28
0,72533	29
0,73600	30
0,74667	30
0,75733	25
0,76800	28
0,77867	27
0,78933	25
0,80000	26
0,81067	26
0,82133	26
0,83200	25
0,84267	31
0,85333	34
0,86400	33
0,87467	29
0,88533	32
0,89600	30
0,90667	30
0,91733	29
0,92800	28
0,93867	32
0,94933	34
0,96000	29
0,97067	25
0,98133	30
0,99200	29
1,00267	26
1,01333	28
1,02400	28
1,03467	32
1,04533	33
1,05600	35
1,06667	30
1,07733	29
1,08800	31
1,09867	31
1,10933	26
1,12000	27
1,13067	25
1,14133	30
1,15200	32
1,16267	25
1,17333	25
1,18400	26
1,19467	28
1,20533	28
1,21600	57
1,22667	42
1,23733	34
1,24800	29
1,25867	27
1,26933	24
1,28000	22
1,29067	26
1,30133	23
1,31200	25
1,32267	29
1,33333	28
1,34400	27
1,35467	26
1,36533	22
1,37600	29
1,38667	30
1,39733	27
1,40800	26
1,41867	23
1,42933	30
1,44000	24
1,45067	26
1,46133	22
1,47200	24
1,48267	27
1,49333	27
1,50400	23
1,51467	22
1,52533	26
1,53600	25
1,54667	24
1,55733	22
1,56800	22
1,57867	25
1,58933	22
1,60000	22
1,61067	25
1,62133	29
1,63200	25
1,64267	21
1,65333	20
1,66400	27
1,67467	28
1,68533	27
1,69600	25
1,70667	25
1,71733	28
1,72800	27
1,73867	22
1,74933	25
1,76000	23
1,77067	25
1,78133	29
1,79200	25
1,80267	23
1,81333	19
1,82400	23
1,83467	22
1,84533	19
1,85600	23
1,86667	20
1,87733	19
1,88800	22
1,89867	19
1,90933	17
1,92000	17
1,93067	24
1,94133	15
1,95200	17
1,96267	19
1,97333	18
1,98400	20
1,99467	17
2,00533	16
2,01600	20
2,02667	21
2,03733	16
2,04800	20
2,05867	24
2,06933	23
2,08000	18
2,09067	22
2,10133	26
2,11200	30
2,12267	31
2,13333	24
2,14400	24
2,15467	25
2,16533	23
2,17600	27
2,18667	23
2,19733	20
2,20800	18
2,21867	18
2,22933	20
2,24000	22
2,25067	21
2,26133	23
2,27200	23
2,28267	24
2,29333	23
2,30400	23
2,31467	20
2,32533	21
2,33600	21
2,34667	19
2,35733	17
2,36800	17
2,37867	21
2,38933	22
2,40000	28
2,41067	27
2,42133	25
2,43200	23
2,44267	25
2,45333	26
2,46400	24
2,47467	37
2,48533	65
2,49600	56
2,50667	35
2,51733	24
2,52800	24
2,53867	31
2,54933	24
2,56000	25
2,57067	23
2,58133	24
2,59200	22
2,60267	24
2,61333	21
2,62400	21
2,63467	23
2,64533	23
2,65600	28
2,66667	33
2,67733	34
2,68800	43
2,69867	51
2,70933	59
2,72000	76
2,73067	94
2,74133	112
2,75200	137
2,76267	170
2,77333	207
2,78400	253
2,79467	294
2,80533	337
2,81600	374
2,82667	409
2,83733	427
2,84800	437
2,85867	441
2,86933	441
2,88000	420
2,89067	351
2,90133	243
2,91200	122
2,92267	0
2,93333	-104
2,94400	-184
2,95467	-226
2,96533	-254
2,97600	-249
2,98667	-237
2,99733	-211
3,00800	-184
3,01867	-161
3,02933	-135
3,04000	-113
3,05067	-103
3,06133	-89
3,07200	-84
3,08267	-79
3,09333	-76
3,10400	-70
3,11467	-62
3,12533	-55
3,13600	-42
3,14667	-38
3,15733	-32
3,16800	-25
3,17867	-27
3,18933	-36
3,20000	-48
3,21067	-66
3,22133	-86
3,23200	-106
3,24267	-125
3,25333	-150
3,26400	-170
3,27467	-180
3,28533	-184
3,29600	-188
3,30667	-179
3,31733	-160
3,32800	-134
3,33867	-101
3,34933	-63
3,36000	-16
3,37067	27
3,38133	68
3,39200	102
3,40267	133
3,41333	154
3,42400	169
3,43467	179
3,44533	188
3,45600	194
3,46667	188
3,47733	185
3,48800	174
3,49867	170
3,50933	162
3,52000	158
3,53067	145
3,54133	138
3,55200	132
3,56267	129
3,57333	122
3,58400	116
3,59467	118
3,60533	113
3,61600	104
3,62667	100
3,63733	98
3,64800	90
3,65867	92
3,66933	91
3,68000	87
3,69067	88
3,70133	86
3,71200	82
3,72267	80
3,73333	82
3,74400	80
3,75467	78
3,76533	79
3,77600	80
3,78667	74
3,79733	72
3,80800	70
3,81867	66
3,82933	64
3,84000	64
3,85067	59
3,86133	60
3,87200	58
3,88267	62
3,89333	56
3,90400	57
3,91467	58
3,92533	54
3,93600	53
3,94667	59
3,95733	47
3,96800	48
3,97867	49
3,98933	52
4,00000	45
4,01067	42
4,02133	47
4,03200	44
4,04267	46
4,05333	45
4,06400	46
4,07467	44
4,08533	43
4,09600	43
4,10667	44
4,11733	42
4,12800	38
4,13867	36
4,14933	38
4,16000	43
4,17067	46
4,18133	42
4,19200	43
4,20267	44
4,21333	49
4,22400	48
4,23467	49
4,24533	41
4,25600	41
4,26667	39
4,27733	39
4,28800	40
4,29867	36
4,30933	37
4,32000	37
4,33067	38
4,34133	33
4,35200	34
4,36267	33
4,37333	30
4,38400	29
4,39467	24
4,40533	28
4,41600	34
4,42667	36
4,43733	36
4,44800	38
4,45867	37
4,46933	36
4,48000	37
4,49067	37
4,50133	36
4,51200	34
4,52267	32
4,53333	35
4,54400	36
4,55467	36
4,56533	37
4,57600	33
4,58667	38
4,59733	38
4,60800	37
4,61867	34
4,62933	36
4,64000	37
4,65067	32
4,66133	33
4,67200	33
4,68267	31
4,69333	30
4,70400	32
4,71467	32
4,72533	34
4,73600	34
4,74667	36
4,75733	37
4,76800	33
4,77867	34
4,78933	38
4,80000	42
4,81067	38
4,82133	42
4,83200	40
4,84267	48
4,85333	42
4,86400	41
4,87467	43
4,88533	43
4,89600	46
4,90667	50
4,91733	49
4,92800	50
4,93867	48
4,94933	47
4,96000	50
4,97067	47
4,98133	51
4,99200	51
5,00267	43
5,01333	47
5,02400	42
5,03467	45
5,04533	41
5,05600	47
5,06667	48
5,07733	50
5,08800	44
5,09867	44
5,10933	47
5,12000	45
5,13067	43
5,14133	45
5,15200	47
5,16267	43
5,17333	44
5,18400	42
5,19467	37
5,20533	37
5,21600	42
5,22667	40
5,23733	43
5,24800	41
5,25867	44
5,26933	47
5,28000	46
5,29067	46
5,30133	50
5,31200	58
5,32267	58
5,33333	58
5,34400	54
5,35467	55
5,36533	60
5,37600	60
5,38667	63
5,39733	65
5,40800	66
5,41867	64
5,42933	68
5,44000	62
5,45067	64
5,46133	66
5,47200	67
5,48267	68
5,49333	61
5,50400	64
5,51467	63
5,52533	61
5,53600	64
5,54667	62
5,55733	64
5,56800	65
5,57867	61
5,58933	61
5,60000	57
5,61067	58
5,62133	59
5,63200	60
5,64267	64
5,65333	60
5,66400	54
5,67467	59
5,68533	63
5,69600	64
5,70667	69
5,71733	64
5,72800	61
5,73867	61
5,74933	64
5,76000	60
5,77067	61
5,78133	56
5,79200	53
5,80267	54
5,81333	55
5,82400	50
5,83467	56
5,84533	54
5,85600	57
5,86667	56
5,87733	59
5,88800	60
5,89867	62
5,90933	64
5,92000	62
5,93067	62
5,94133	60
5,95200	61
5,96267	59
5,97333	56
5,98400	55
5,99467	53
6,00533	54
6,01600	56
6,02667	57
6,03733	56
6,04800	56
6,05867	55
6,06933	56
6,08000	57
6,09067	51
6,10133	58
6,11200	57
6,12267	60
6,13333	58
6,14400	57
6,15467	54
6,16533	53
6,17600	57
6,18667	55
6,19733	60
6,20800	63
6,21867	63
6,22933	58
6,24000	59
6,25067	57
6,26133	56
6,27200	58
6,28267	61
6,29333	53
6,30400	61
6,31467	63
6,32533	61
6,33600	60
6,34667	59
6,35733	60
6,36800	58
6,37867	57
6,38933	56
6,40000	57
6,41067	63
6,42133	65
6,43200	56
6,44267	60
6,45333	63
6,46400	61
6,47467	63
6,48533	58
6,49600	53
6,50667	60
6,51733	58
6,52800	60
6,53867	58
6,54933	58
6,56000	63
6,57067	59
6,58133	56
6,59200	67
6,60267	70
6,61333	60
6,62400	57
6,63467	61
6,64533	57
6,65600	56
6,66667	60
6,67733	57
6,68800	59
6,69867	62
6,70933	59
6,72000	60
6,73067	55
6,74133	57
6,75200	59
6,76267	60
6,77333	60
6,78400	60
6,79467	62
6,80533	59
6,81600	58
6,82667	65
6,83733	61
6,84800	59
6,85867	60
6,86933	57
6,88000	56
6,89067	56
6,90133	61
6,91200	60
6,92267	55
6,93333	58
6,94400	58
6,95467	58
6,96533	56
6,97600	55
6,98667	56
6,99733	60
7,00800	61
7,01867	57
7,02933	53
7,04000	61
7,05067	56
7,06133	58
7,07200	57
7,08267	60
7,09333	61
7,10400	57
7,11467	57
7,12533	56
7,13600	59
7,14667	64
7,15733	67
7,16800	71
7,17867	69
7,18933	70
7,20000	72
7,21067	73
7,22133	75
7,23200	73
7,24267	77
7,25333	80
7,26400	76
7,27467	73
7,28533	70
7,29600	72
7,30667	77
7,31733	83
7,32800	78
7,33867	77
7,34933	79
7,36000	83
7,37067	82
7,38133	85
7,39200	84
7,40267	84
7,41333	89
7,42400	88
7,43467	91
7,44533	91
7,45600	91
7,46667	92
7,47733	94
7,48800	93
7,49867	95
7,50933	102
7,52000	99
7,53067	105
7,54133	102
7,55200	105
7,56267	102
7,57333	109
7,58400	109
7,59467	113
7,60533	113
7,61600	117
7,62667	118
7,63733	125
7,64800	123
7,65867	119
7,66933	124
7,68000	123
7,69067	122
7,70133	124
7,71200	128
7,72267	131
7,73333	132
7,74400	139
7,75467	144
7,76533	146
7,77600	140
7,78667	142
7,79733	143
7,80800	147
7,81867	149
7,82933	151
7,84000	153
7,85067	156
7,86133	155
7,87200	157
7,88267	160
7,89333	165
7,90400	162
7,91467	164
7,92533	168
7,93600	168
7,94667	162
7,95733	165
7,96800	169
7,97867	170
7,98933	172
8,00000	174
8,01067	180
8,02133	182
8,03200	183
8,04267	185
8,05333	185
8,06400	184
8,07467	192
8,08533	191
8,09600	189
8,10667	194
8,11733	195
8,12800	196
8,13867	200
8,14933	204
8,16000	205
8,17067	201
8,18133	208
8,19200	213
8,20267	211
8,21333	213
8,22400	213
8,23467	214
8,24533	217
8,25600	218
8,26667	223
8,27733	222
8,28800	221
8,29867	227
8,30933	228
8,32000	225
8,33067	223
8,34133	223
8,35200	223
8,36267	226
8,37333	230
8,38400	237
8,39467	240
8,40533	242
8,41600	244
8,42667	242
8,43733	244
8,44800	246
8,45867	246
8,46933	245
8,48000	239
8,49067	234
8,50133	236
8,51200	232
8,52267	232
8,53333	231
8,54400	234
8,55467	230
8,56533	232
8,57600	230
8,58667	234
8,59733	259
8,60800	246
8,61867	231
8,62933	223
8,64000	220
8,65067	221
8,66133	218
8,67200	215
8,68267	215
8,69333	214
8,70400	209
8,71467	211
8,72533	206
8,73600	206
8,74667	210
8,75733	211
8,76800	208
8,77867	203
8,78933	203
8,80000	204
8,81067	205
8,82133	202
8,83200	203
8,84267	203
8,85333	201
8,86400	204
8,87467	212
8,88533	206
8,89600	207
8,90667	212
8,91733	215
8,92800	215
8,93867	217
8,94933	217
8,96000	217
8,97067	215
8,98133	221
8,99200	223
9,00267	219
9,01333	222
9,02400	219
9,03467	215
9,04533	214
9,05600	206
9,06667	196
9,07733	190
9,08800	184
9,09867	184
9,10933	183
9,12000	179
9,13067	171
9,14133	171
9,15200	162
9,16267	155
9,17333	156
9,18400	153
9,19467	155
9,20533	147
9,21600	151
9,22667	148
9,23733	143
9,24800	141
9,25867	136
9,26933	135
9,28000	133
9,29067	126
9,30133	121
9,31200	121
9,32267	114
9,33333	113
9,34400	113
9,35467	106
9,36533	104
9,37600	104
9,38667	102
9,39733	106
9,40800	102
9,41867	99
9,42933	97
9,44000	96
9,45067	96
9,46133	96
9,47200	98
9,48267	98
9,49333	94
9,50400	96
9,51467	94
9,52533	90
9,53600	89
9,54667	88
9,55733	82
9,56800	74
9,57867	66
9,58933	60
9,60000	82
9,61067	66
9,62133	59
9,63200	60
9,64267	56
9,65333	53
9,66400	53
9,67467	54
9,68533	49
9,69600	54
9,70667	55
9,71733	58
9,72800	54
9,73867	49
9,74933	45
9,76000	45
9,77067	43
9,78133	39
9,79200	32
9,80267	29
9,81333	30
9,82400	24
9,83467	24
9,84533	25
9,85600	19
9,86667	16
9,87733	16
9,88800	16
9,89867	15
9,90933	23
9,92000	17
9,93067	11
9,94133	3
9,95200	-1
9,96267	-2
9,97333	1
9,98400	-2
9,99467	-4
10,00533	1
10,01600	1
10,02667	-2
10,03733	4
10,04800	6
10,05867	7
10,06933	13
10,08000	17
10,09067	23
10,10133	24
10,11200	20
10,12267	19
10,13333	13
10,14400	13
10,15467	9
10,16533	8
10,17600	12
10,18667	17
10,19733	22
10,20800	28
10,21867	36
10,22933	39
10,24000	37
10,25067	36
10,26133	41
10,27200	40
10,28267	40
10,29333	42
10,30400	46
10,31467	53
10,32533	57
10,33600	54
10,34667	54
10,35733	42
10,36800	32
10,37867	10
10,38933	-10
10,40000	-22
10,41067	-42
10,42133	-52
10,43200	-64
10,44267	-72
10,45333	-78
10,46400	-79
10,47467	-86
10,48533	-91
10,49600	-92
10,50667	-96
10,51733	-97
10,52800	-101
10,53867	-107
10,54933	-105
10,56000	-104
10,57067	-109
10,58133	-109
10,59200	-111
10,60267	-114
10,61333	-118
10,62400	-117
10,63467	-119
10,64533	-122
10,65600	-122
10,66667	-119
10,67733	-118
10,68800	-109
10,69867	-94
10,70933	-95
10,72000	-105
10,73067	-107
10,74133	-112
10,75200	-115
10,76267	-114
10,77333	-117
10,78400	-121
10,79467	-120
10,80533	-118
10,81600	-117
10,82667	-111
10,83733	-102
10,84800	-96
10,85867	-87
10,86933	-76
10,88000	-64
10,89067	-57
10,90133	-57
10,91200	-62
10,92267	-72
10,93333	-81
10,94400	-88
10,95467	-101
10,96533	-119
10,97600	-125
10,98667	-135
10,99733	-143
11,00800	-153
11,01867	-164
11,02933	-163
11,04000	-167
11,05067	-171
11,06133	-174
11,07200	-178
11,08267	-176
11,09333	-175
11,10400	-177
11,11467	-174
11,12533	-172
11,13600	-170
11,14667	-175
11,15733	-180
11,16800	-188
11,17867	-190
11,18933	-199
11,20000	-200
11,21067	-207
11,22133	-204
11,23200	-208
11,24267	-211
11,25333	-213
11,26400	-216
11,27467	-217
11,28533	-223
11,29600	-221
11,30667	-218
11,31733	-222
11,32800	-224
11,33867	-223
11,34933	-227
11,36000	-235
11,37067	-240
11,38133	-244
11,39200	-246
11,40267	-249
11,41333	-250
11,42400	-252
11,43467	-261
11,44533	-260
11,45600	-259
11,46667	-261
11,47733	-263
11,48800	-268
11,49867	-270
11,50933	-263
11,52000	-266
11,53067	-268
11,54133	-263
11,55200	-256
11,56267	-252
11,57333	-250
11,58400	-249
11,59467	-247
11,60533	-242
11,61600	-233
11,62667	-237
11,63733	-240
11,64800	-246
11,65867	-258
11,66933	-267
11,68000	-275
11,69067	-276
11,70133	-282
11,71200	-288
11,72267	-288
11,73333	-290
11,74400	-291
11,75467	-293
11,76533	-297
11,77600	-298
11,78667	-302
11,79733	-307
11,80800	-310
11,81867	-309
11,82933	-308
11,84000	-309
11,85067	-316
11,86133	-314
11,87200	-318
11,88267	-318
11,89333	-323
11,90400	-321
11,91467	-323
11,92533	-323
11,93600	-319
11,94667	-315
11,95733	-317
11,96800	-319
11,97867	-318
11,98933	-317
12,00000	-318
12,01067	-314
12,02133	-316
12,03200	-311
12,04267	-312
12,05333	-302
12,06400	-303
12,07467	-299
12,08533	-295
12,09600	-292
12,10667	-290
12,11733	-287
12,12800	-284
12,13867	-282
12,14933	-277
12,16000	-270
12,17067	-266
12,18133	-249
12,19200	-236
12,20267	-215
12,21333	-180
12,22400	-147
12,23467	-106
12,24533	-68
12,25600	-25
12,26667	98
12,27733	77
12,28800	65
12,29867	87
12,30933	52
12,32000	12
12,33067	-21
12,34133	-49
12,35200	-81
12,36267	-110
12,37333	-94
12,38400	-137
12,39467	-171
12,40533	-194
12,41600	-178
12,42667	-202
12,43733	-223
12,44800	-237
12,45867	-248
12,46933	-252
12,48000	-260
12,49067	-262
12,50133	-250
12,51200	-257
12,52267	-269
12,53333	-235
12,54400	-250
12,55467	-262
12,56533	-252
12,57600	-250
12,58667	-239
12,59733	-228
12,60800	-210
12,61867	-194
12,62933	-178
12,64000	-168
12,65067	-164
12,66133	-163
12,67200	-176
12,68267	-195
12,69333	-212
12,70400	-231
12,71467	-246
12,72533	-265
12,73600	-283
12,74667	-291
12,75733	-295
12,76800	-300
12,77867	-310
12,78933	-316
12,80000	-324
12,81067	-331
12,82133	-334
12,83200	-338
12,84267	-339
12,85333	-337
12,86400	-336
12,87467	-337
12,88533	-337
12,89600	-311
12,90667	-327
12,91733	-323
12,92800	-310
12,93867	-298
12,94933	-278
12,96000	-256
12,97067	-235
12,98133	-208
12,99200	-186
13,00267	-165
13,01333	-159
13,02400	-163
13,03467	-170
13,04533	-190
13,05600	-217
13,06667	-248
13,07733	-262
13,08800	-285
13,09867	-303
13,10933	-320
13,12000	-331
13,13067	-344
13,14133	-359
13,15200	-344
13,16267	-353
13,17333	-369
13,18400	-386
13,19467	-389
13,20533	-396
13,21600	-401
13,22667	-404
13,23733	-405
13,24800	-406
13,25867	-405
13,26933	-398
13,28000	-389
13,29067	-372
13,30133	-346
13,31200	-297
13,32267	-238
13,33333	-167
13,34400	-99
13,35467	-36
13,36533	10
13,37600	39
13,38667	35
13,39733	2
13,40800	-51
13,41867	-111
13,42933	-171
13,44000	-226
13,45067	-278
13,46133	-311
13,47200	-346
13,48267	-368
13,49333	-385
13,50400	-397
13,51467	-403
13,52533	-412
13,53600	-418
13,54667	-421
13,55733	-384
13,56800	-379
13,57867	-409
13,58933	-424
13,60000	-429
13,61067	-429
13,62133	-437
13,63200	-429
13,64267	-428
13,65333	-430
13,66400	-429
13,67467	-429
13,68533	-426
13,69600	-428
13,70667	-430
13,71733	-425
13,72800	-422
13,73867	-422
13,74933	-424
13,76000	-417
13,77067	-417
13,78133	-412
13,79200	-411
13,80267	-408
13,81333	-406
13,82400	-406
13,83467	-396
13,84533	-391
13,85600	-381
13,86667	-376
13,87733	-356
13,88800	-346
13,89867	-341
13,90933	-334
13,92000	-337
13,93067	-336
13,94133	-343
13,95200	-352
13,96267	-370
13,97333	-372
13,98400	-384
13,99467	-394
14,00533	-400
14,01600	-398
14,02667	-405
14,03733	-412
14,04800	-415
14,05867	-414
14,06933	-418
14,08000	-416
14,09067	-415
14,10133	-419
14,11200	-417
14,12267	-419
14,13333	-419
14,14400	-412
14,15467	-400
14,16533	-406
14,17600	-407
14,18667	-406
14,19733	-404
14,20800	-408
14,21867	-406
14,22933	-393
14,24000	-359
14,25067	-382
14,26133	-387
14,27200	-379
14,28267	-372
14,29333	-352
14,30400	-334
14,31467	-305
14,32533	-236
14,33600	-233
14,34667	-210
14,35733	-183
14,36800	-167
14,37867	-159
14,38933	-154
14,40000	-161
14,41067	-165
14,42133	-169
14,43200	-177
14,44267	-189
14,45333	-194
14,46400	-197
14,47467	-192
14,48533	-188
14,49600	-190
14,50667	-191
14,51733	-197
14,52800	-201
14,53867	-210
14,54933	-222
14,56000	-235
14,57067	-244
14,58133	-251
14,59200	-255
14,60267	-257
14,61333	-253
14,62400	-248
14,63467	-243
14,64533	-238
14,65600	-228
14,66667	-223
14,67733	-215
14,68800	-203
14,69867	-190
14,70933	-179
14,72000	-160
14,73067	-137
14,74133	-102
14,75200	-58
14,76267	-6
14,77333	53
14,78400	127
14,79467	193
14,80533	253
14,81600	309
14,82667	393
14,83733	552
14,84800	879
14,85867	1449
14,86933	2288
14,88000	3390
14,89067	4647
14,90133	5950
14,91200	7200
14,92267	8344
14,93333	8765
14,94400	8641
14,95467	7995
14,96533	6975
14,97600	5809
14,98667	4666
14,99733	3671
15,00800	2875
15,01867	2291
15,02933	1884
15,04000	1637
15,05067	1525
15,06133	1506
15,07200	1551
15,08267	1621
15,09333	1726
15,10400	1831
15,11467	2148
15,12533	3378
15,13600	6981
15,14667	15116
15,15733	29490
15,16800	50303
15,17867	76761
15,18933	107300
15,20000	139046
15,21067	168188
15,22133	189929
15,23200	200190
15,24267	198109
15,25333	185543
15,26400	165716
15,27467	142490
15,28533	118902
15,29600	96786
15,30667	77383
15,31733	61187
15,32800	48015
15,33867	37465
15,34933	29141
15,36000	22632
15,37067	17513
15,38133	13522
15,39200	10453
15,40267	8093
15,41333	6285
15,42400	4931
15,43467	3937
15,44533	3227
15,45600	2737
15,46667	2428
15,47733	2267
15,48800	2227
15,49867	2265
15,50933	2363
15,52000	2493
15,53067	2630
15,54133	2725
15,55200	2749
15,56267	2677
15,57333	2515
15,58400	2302
15,59467	2074
15,60533	1878
15,61600	1730
15,62667	1627
15,63733	1575
15,64800	1574
15,65867	1618
15,66933	1697
15,68000	1797
15,69067	1892
15,70133	1966
15,71200	2005
15,72267	1997
15,73333	1943
15,74400	1847
15,75467	1724
15,76533	1595
15,77600	1500
15,78667	1468
15,79733	1519
15,80800	1667
15,81867	1890
15,82933	2168
15,84000	2475
15,85067	2778
15,86133	3030
15,87200	3181
15,88267	3209
15,89333	3107
15,90400	2911
15,91467	2654
15,92533	2409
15,93600	2138
15,94667	1871
15,95733	1666
15,96800	1516
15,97867	1414
15,98933	1364
16,00000	1353
16,01067	1383
16,02133	1431
16,03200	1505
16,04267	1577
16,05333	1624
16,06400	1617
16,07467	1557
16,08533	1453
16,09600	1323
16,10667	1185
16,11733	1056
16,12800	932
16,13867	809
16,14933	703
16,16000	613
16,17067	535
16,18133	475
16,19200	430
16,20267	391
16,21333	374
16,22400	377
16,23467	415
16,24533	499
16,25600	640
16,26667	830
16,27733	1053
16,28800	1315
16,29867	1599
16,30933	1877
16,32000	2119
16,33067	2273
16,34133	2301
16,35200	2198
16,36267	2000
16,37333	1736
16,38400	1449
16,39467	1170
16,40533	904
16,41600	673
16,42667	480
16,43733	318
16,44800	182
16,45867	86
16,46933	10
16,48000	-43
16,49067	-70
16,50133	-89
16,51200	-79
16,52267	-60
16,53333	-32
16,54400	-7
16,55467	22
16,56533	41
16,57600	40
16,58667	28
16,59733	-7
16,60800	-54
16,61867	-108
16,62933	-156
16,64000	-188
16,65067	-210
16,66133	-210
16,67200	-196
16,68267	-178
16,69333	-149
16,70400	-120
16,71467	-101
16,72533	-93
16,73600	-97
16,74667	-125
16,75733	-158
16,76800	-208
16,77867	-252
16,78933	-287
16,80000	-324
16,81067	-361
16,82133	-385
16,83200	-401
16,84267	-423
16,85333	-438
16,86400	-449
16,87467	-467
16,88533	-479
16,89600	-490
16,90667	-498
16,91733	-494
16,92800	-493
16,93867	-494
16,94933	-497
16,96000	-498
16,97067	-492
16,98133	-491
16,99200	-494
17,00267	-495
17,01333	-501
17,02400	-500
17,03467	-504
17,04533	-499
17,05600	-508
17,06667	-510
17,07733	-516
17,08800	-523
17,09867	-525
17,10933	-526
17,12000	-525
17,13067	-529
17,14133	-529
17,15200	-530
17,16267	-526
17,17333	-517
17,18400	-517
17,19467	-517
17,20533	-508
17,21600	-508
17,22667	-512
17,23733	-510
17,24800	-514
17,25867	-517
17,26933	-521
17,28000	-525
17,29067	-536
17,30133	-539
17,31200	-539
17,32267	-544
17,33333	-544
17,34400	-549
17,35467	-551
17,36533	-552
17,37600	-551
17,38667	-550
17,39733	-553
17,40800	-552
17,41867	-554
17,42933	-551
17,44000	-548
17,45067	-546
17,46133	-544
17,47200	-545
17,48267	-540
17,49333	-542
17,50400	-533
17,51467	-528
17,52533	-517
17,53600	-502
17,54667	-488
17,55733	-475
17,56800	-461
17,57867	-446
17,58933	-435
17,60000	-430
17,61067	-431
17,62133	-428
17,63200	-434
17,64267	-443
17,65333	-447
17,66400	-450
17,67467	-453
17,68533	-465
17,69600	-473
17,70667	-476
17,71733	-482
17,72800	-483
17,73867	-488
17,74933	-495
17,76000	-494
17,77067	-498
17,78133	-504
17,79200	-509
17,80267	-509
17,81333	-511
17,82400	-518
17,83467	-521
17,84533	-520
17,85600	-519
17,86667	-518
17,87733	-515
17,88800	-521
17,89867	-521
17,90933	-522
17,92000	-518
17,93067	-521
17,94133	-520
17,95200	-516
17,96267	-516
17,97333	-512
17,98400	-512
17,99467	-512
18,00533	-514
18,01600	-517
18,02667	-511
18,03733	-516
18,04800	-521
18,05867	-522
18,06933	-526
18,08000	-529
18,09067	-525
18,10133	-520
18,11200	-518
18,12267	-513
18,13333	-506
18,14400	-503
18,15467	-500
18,16533	-496
18,17600	-496
18,18667	-492
18,19733	-487
18,20800	-482
18,21867	-482
18,22933	-487
18,24000	-487
18,25067	-499
18,26133	-505
18,27200	-512
18,28267	-521
18,29333	-526
18,30400	-523
18,31467	-531
18,32533	-532
18,33600	-534
18,34667	-533
18,35733	-527
18,36800	-529
18,37867	-531
18,38933	-531
18,40000	-528
18,41067	-528
18,42133	-523
18,43200	-518
18,44267	-513
18,45333	-505
18,46400	-490
18,47467	-483
18,48533	-468
18,49600	-462
18,50667	-453
18,51733	-448
18,52800	-448
18,53867	-445
18,54933	-446
18,56000	-452
18,57067	-456
18,58133	-461
18,59200	-466
18,60267	-477
18,61333	-482
18,62400	-480
18,63467	-488
18,64533	-498
18,65600	-500
18,66667	-498
18,67733	-504
18,68800	-509
18,69867	-511
18,70933	-512
18,72000	-512
18,73067	-511
18,74133	-510
18,75200	-516
18,76267	-517
18,77333	-522
18,78400	-527
18,79467	-522
18,80533	-526
18,81600	-526
18,82667	-532
18,83733	-524
18,84800	-527
18,85867	-529
18,86933	-529
18,88000	-527
18,89067	-531
18,90133	-521
18,91200	-518
18,92267	-518
18,93333	-518
18,94400	-517
18,95467	-512
18,96533	-508
18,97600	-512
18,98667	-506
18,99733	-500
19,00800	-504
19,01867	-501
19,02933	-506
19,04000	-510
19,05067	-511
19,06133	-507
19,07200	-508
19,08267	-511
19,09333	-510
19,10400	-510
19,11467	-510
19,12533	-508
19,13600	-506
19,14667	-503
19,15733	-506
19,16800	-504
19,17867	-498
19,18933	-490
19,20000	-482
19,21067	-467
19,22133	-446
19,23200	-416
19,24267	-386
19,25333	-342
19,26400	-287
19,27467	-221
19,28533	-148
19,29600	-63
19,30667	30
19,31733	136
19,32800	243
19,33867	342
19,34933	448
19,36000	547
19,37067	633
19,38133	702
19,39200	747
19,40267	761
19,41333	752
19,42400	715
19,43467	657
19,44533	589
19,45600	505
19,46667	416
19,47733	339
19,48800	263
19,49867	195
19,50933	130
19,52000	74
19,53067	24
19,54133	-20
19,55200	-64
19,56267	-100
19,57333	-131
19,58400	-159
19,59467	-182
19,60533	-204
19,61600	-220
19,62667	-239
19,63733	-258
19,64800	-268
19,65867	-278
19,66933	-285
19,68000	-297
19,69067	-309
19,70133	-315
19,71200	-324
19,72267	-324
19,73333	-330
19,74400	-337
19,75467	-336
19,76533	-339
19,77600	-342
19,78667	-342
19,79733	-343
19,80800	-347
19,81867	-342
19,82933	-346
19,84000	-350
19,85067	-360
19,86133	-359
19,87200	-361
19,88267	-362
19,89333	-359
19,90400	-355
19,91467	-349
19,92533	-349
19,93600	-348
19,94667	-345
19,95733	-344
19,96800	-341
19,97867	-340
19,98933	-341
20,00000	-343
20,01067	-346
20,02133	-354
20,03200	-361
20,04267	-361
20,05333	-368
20,06400	-377
20,07467	-379
20,08533	-378
20,09600	-378
20,10667	-381
20,11733	-388
20,12800	-388
20,13867	-387
20,14933	-386
20,16000	-385
20,17067	-387
20,18133	-380
20,19200	-378
20,20267	-373
20,21333	-371
20,22400	-362
20,23467	-359
20,24533	-356
20,25600	-359
20,26667	-356
20,27733	-359
20,28800	-356
20,29867	-357
20,30933	-360
20,32000	-357
20,33067	-357
20,34133	-352
20,35200	-356
20,36267	-361
20,37333	-359
20,38400	-352
20,39467	-354
20,40533	-355
20,41600	-353
20,42667	-348
20,43733	-352
20,44800	-351
20,45867	-349
20,46933	-350
20,48000	-350
20,49067	-346
20,50133	-347
20,51200	-344
20,52267	-342
20,53333	-339
20,54400	-338
20,55467	-338
20,56533	-336
20,57600	-332
20,58667	-330
20,59733	-327
20,60800	-331
20,61867	-330
20,62933	-325
20,64000	-329
20,65067	-327
20,66133	-326
20,67200	-327
20,68267	-331
20,69333	-333
20,70400	-335
20,71467	-336
20,72533	-333
20,73600	-330
20,74667	-330
20,75733	-328
20,76800	-324
20,77867	-324
20,78933	-322
20,80000	-319
20,81067	-316
20,82133	-318
20,83200	-322
20,84267	-322
20,85333	-323
20,86400	-329
20,87467	-328
20,88533	-328
20,89600	-328
20,90667	-331
20,91733	-336
20,92800	-335
20,93867	-334
20,94933	-334
20,96000	-339
20,97067	-328
20,98133	-325
20,99200	-322
21,00267	-312
21,01333	-307
21,02400	-297
21,03467	-288
21,04533	-278
21,05600	-274
21,06667	-265
21,07733	-253
21,08800	-247
21,09867	-236
21,10933	-229
21,12000	-224
21,13067	-221
21,14133	-222
21,15200	-221
21,16267	-225
21,17333	-233
21,18400	-235
21,19467	-236
21,20533	-244
21,21600	-248
21,22667	-254
21,23733	-259
21,24800	-263
21,25867	-265
21,26933	-268
21,28000	-270
21,29067	-276
21,30133	-283
21,31200	-277
21,32267	-278
21,33333	-282
21,34400	-284
21,35467	-279
21,36533	-279
21,37600	-275
21,38667	-271
21,39733	-274
21,40800	-274
21,41867	-265
21,42933	-257
21,44000	-256
21,45067	-257
21,46133	-256
21,47200	-247
21,48267	-248
21,49333	-246
21,50400	-250
21,51467	-253
21,52533	-257
21,53600	-259
21,54667	-262
21,55733	-259
21,56800	-259
21,57867	-265
21,58933	-265
21,60000	-261
21,61067	-260
21,62133	-255
21,63200	-255
21,64267	-253
21,65333	-252
21,66400	-245
21,67467	-243
21,68533	-238
21,69600	-228
21,70667	-223
21,71733	-215
21,72800	-205
21,73867	-202
21,74933	-189
21,76000	-184
21,77067	-177
21,78133	-171
21,79200	-172
21,80267	-173
21,81333	-168
21,82400	-165
21,83467	-161
21,84533	-160
21,85600	-157
21,86667	-156
21,87733	-155
21,88800	-154
21,89867	-159
21,90933	-158
21,92000	-158
21,93067	-159
21,94133	-165
21,95200	-163
21,96267	-160
21,97333	-154
21,98400	-150
21,99467	-153
22,00533	-154
22,01600	-154
22,02667	-154
22,03733	-155
22,04800	-156
22,05867	-158
22,06933	-156
22,08000	-156
22,09067	-156
22,10133	-155
22,11200	-158
22,12267	-149
22,13333	-151
22,14400	-147
22,15467	-145
22,16533	-142
22,17600	-143
22,18667	-134
22,19733	-131
22,20800	-130
22,21867	-130
22,22933	-134
22,24000	-141
22,25067	-146
22,26133	-147
22,27200	-155
22,28267	-160
22,29333	-166
22,30400	-166
22,31467	-169
22,32533	-168
22,33600	-172
22,34667	-167
22,35733	-167
22,36800	-164
22,37867	-165
22,38933	-166
22,40000	-162
22,41067	-160
22,42133	-157
22,43200	-162
22,44267	-163
22,45333	-162
22,46400	-158
22,47467	-159
22,48533	-161
22,49600	-162
22,50667	-163
22,51733	-161
22,52800	-163
22,53867	-158
22,54933	-161
22,56000	-165
22,57067	-160
22,58133	-161
22,59200	-151
22,60267	-148
22,61333	-139
22,62400	-135
22,63467	-128
22,64533	-116
22,65600	-110
22,66667	-105
22,67733	-96
22,68800	-90
22,69867	-79
22,70933	-69
22,72000	-60
22,73067	-56
22,74133	-62
22,75200	-60
22,76267	-59
22,77333	-57
22,78400	-53
22,79467	-55
22,80533	-44
22,81600	-44
22,82667	-31
22,83733	-28
22,84800	-24
22,85867	-21
22,86933	-14
22,88000	-12
22,89067	-15
22,90133	-17
22,91200	-19
22,92267	-21
22,93333	-24
22,94400	-25
22,95467	-28
22,96533	-23
22,97600	-16
22,98667	-15
22,99733	-0
23,00800	7
23,01867	16
23,02933	37
23,04000	48
23,05067	61
23,06133	70
23,07200	82
23,08267	91
23,09333	94
23,10400	91
23,11467	94
23,12533	98
23,13600	95
23,14667	87
23,15733	82
23,16800	86
23,17867	91
23,18933	92
23,20000	93
23,21067	88
23,22133	86
23,23200	83
23,24267	76
23,25333	77
23,26400	74
23,27467	74
23,28533	67
23,29600	65
23,30667	57
23,31733	65
23,32800	70
23,33867	69
23,34933	67
23,36000	67
23,37067	70
23,38133	66
23,39200	70
23,40267	72
23,41333	65
23,42400	63
23,43467	67
23,44533	59
23,45600	59
23,46667	60
23,47733	58
23,48800	60
23,49867	61
23,50933	62
23,52000	56
23,53067	54
23,54133	50
23,55200	50
23,56267	40
23,57333	35
23,58400	34
23,59467	27
23,60533	23
23,61600	23
23,62667	22
23,63733	16
23,64800	16
23,65867	15
23,66933	12
23,68000	10
23,69067	11
23,70133	14
23,71200	14
23,72267	14
23,73333	12
23,74400	17
23,75467	15
23,76533	20
23,77600	29
23,78667	34
23,79733	39
23,80800	47
23,81867	57
23,82933	65
23,84000	71
23,85067	88
23,86133	97
23,87200	107
23,88267	116
23,89333	126
23,90400	129
23,91467	129
23,92533	128
23,93600	124
23,94667	125
23,95733	117
23,96800	113
23,97867	109
23,98933	106
24,00000	110
24,01067	110
24,02133	101
24,03200	94
24,04267	92
24,05333	94
24,06400	93
24,07467	89
24,08533	92
24,09600	86
24,10667	83
24,11733	81
24,12800	84
24,13867	86
24,14933	83
24,16000	81
24,17067	79
24,18133	79
24,19200	76
24,20267	77
24,21333	81
24,22400	81
24,23467	86
24,24533	86
24,25600	90
24,26667	93
24,27733	104
24,28800	98
24,29867	102
24,30933	104
24,32000	108
24,33067	116
24,34133	125
24,35200	127
24,36267	137
24,37333	150
24,38400	159
24,39467	171
24,40533	183
24,41600	193
24,42667	207
24,43733	217
24,44800	228
24,45867	245
24,46933	258
24,48000	272
24,49067	286
24,50133	294
24,51200	306
24,52267	313
24,53333	321
24,54400	328
24,55467	330
24,56533	328
24,57600	331
24,58667	321
24,59733	319
24,60800	315
24,61867	313
24,62933	308
24,64000	304
24,65067	298
24,66133	293
24,67200	289
24,68267	281
24,69333	277
24,70400	271
24,71467	272
24,72533	267
24,73600	260
24,74667	259
24,75733	256
24,76800	258
24,77867	248
24,78933	246
24,80000	240
24,81067	239
24,82133	239
24,83200	258
24,84267	237
24,85333	228
24,86400	226
24,87467	225
24,88533	222
24,89600	219
24,90667	219
24,91733	214
24,92800	211
24,93867	211
24,94933	212
24,96000	213
24,97067	210
24,98133	210
24,99200	214
25,00267	211
25,01333	209
25,02400	210
25,03467	207
25,04533	207
25,05600	211
25,06667	208
25,07733	206
25,08800	203
25,09867	208
25,10933	208
25,12000	205
25,13067	209
25,14133	211
25,15200	212
25,16267	213
25,17333	218
25,18400	219
25,19467	218
25,20533	215
25,21600	215
25,22667	220
25,23733	221
25,24800	223
25,25867	223
25,26933	223
25,28000	224
25,29067	225
25,30133	224
25,31200	232
25,32267	231
25,33333	235
25,34400	234
25,35467	237
25,36533	240
25,37600	240
25,38667	245
25,39733	245
25,40800	252
25,41867	251
25,42933	257
25,44000	259
25,45067	264
25,46133	269
25,47200	269
25,48267	273
25,49333	282
25,50400	286
25,51467	290
25,52533	287
25,53600	285
25,54667	289
25,55733	291
25,56800	294
25,57867	292
25,58933	294
25,60000	299
25,61067	298
25,62133	301
25,63200	307
25,64267	312
25,65333	316
25,66400	316
25,67467	314
25,68533	316
25,69600	312
25,70667	316
25,71733	321
25,72800	314
25,73867	317
25,74933	317
25,76000	312
25,77067	313
25,78133	316
25,79200	314
25,80267	311
25,81333	316
25,82400	317
25,83467	315
25,84533	315
25,85600	318
25,86667	316
25,87733	317
25,88800	318
25,89867	319
25,90933	320
25,92000	324
25,93067	323
25,94133	321
25,95200	319
25,96267	324
25,97333	330
25,98400	329
25,99467	330
26,00533	332
26,01600	333
26,02667	334
26,03733	341
26,04800	347
26,05867	355
26,06933	363
26,08000	377
26,09067	390
26,10133	409
26,11200	427
26,12267	459
26,13333	490
26,14400	520
26,15467	558
26,16533	595
26,17600	634
26,18667	672
26,19733	705
26,20800	748
26,21867	784
26,22933	820
26,24000	844
26,25067	863
26,26133	873
26,27200	873
26,28267	862
26,29333	838
26,30400	806
26,31467	771
26,32533	733
26,33600	697
26,34667	671
26,35733	640
26,36800	620
26,37867	602
26,38933	590
26,40000	574
26,41067	571
26,42133	560
26,43200	550
26,44267	545
26,45333	545
26,46400	536
26,47467	531
26,48533	527
26,49600	519
26,50667	522
26,51733	521
26,52800	518
26,53867	516
26,54933	517
26,56000	519
26,57067	514
26,58133	514
26,59200	517
26,60267	523
26,61333	525
26,62400	526
26,63467	523
26,64533	526
26,65600	531
26,66667	534
26,67733	536
26,68800	539
26,69867	538
26,70933	542
26,72000	540
26,73067	543
26,74133	544
26,75200	544
26,76267	544
26,77333	542
26,78400	546
26,79467	550
26,80533	547
26,81600	546
26,82667	546
26,83733	548
26,84800	546
26,85867	548
26,86933	554
26,88000	554
26,89067	557
26,90133	558
26,91200	556
26,92267	557
26,93333	560
26,94400	560
26,95467	557
26,96533	557
26,97600	563
26,98667	559
26,99733	562
27,00800	565
27,01867	571
27,02933	570
27,04000	573
27,05067	569
27,06133	570
27,07200	577
27,08267	577
27,09333	578
27,10400	582
27,11467	590
27,12533	586
27,13600	584
27,14667	589
27,15733	591
27,16800	592
27,17867	595
27,18933	593
27,20000	594
27,21067	598
27,22133	598
27,23200	595
27,24267	602
27,25333	608
27,26400	606
27,27467	611
27,28533	615
27,29600	618
27,30667	620
27,31733	620
27,32800	619
27,33867	625
27,34933	628
27,36000	629
27,37067	630
27,38133	630
27,39200	632
27,40267	638
27,41333	633
27,42400	636
27,43467	642
27,44533	643
27,45600	649
27,46667	652
27,47733	661
27,48800	666
27,49867	676
27,50933	693
27,52000	710
27,53067	730
27,54133	750
27,55200	775
27,56267	804
27,57333	831
27,58400	857
27,59467	885
27,60533	912
27,61600	938
27,62667	961
27,63733	986
27,64800	1004
27,65867	1014
27,66933	1018
27,68000	1020
27,69067	1002
27,70133	985
27,71200	966
27,72267	947
27,73333	918
27,74400	901
27,75467	883
27,76533	874
27,77600	865
27,78667	861
27,79733	856
27,80800	854
27,81867	851
27,82933	852
27,84000	850
27,85067	857
27,86133	859
27,87200	859
27,88267	862
27,89333	873
27,90400	879
27,91467	880
27,92533	884
27,93600	894
27,94667	897
27,95733	895
27,96800	896
27,97867	892
27,98933	897
28,00000	888
28,01067	880
28,02133	870
28,03200	863
28,04267	851
28,05333	843
28,06400	841
28,07467	834
28,08533	833
28,09600	824
28,10667	815
28,11733	815
28,12800	815
28,13867	814
28,14933	813
28,16000	808
28,17067	808
28,18133	809
28,19200	801
28,20267	802
28,21333	802
28,22400	804
28,23467	803
28,24533	806
28,25600	804
28,26667	809
28,27733	809
28,28800	806
28,29867	803
28,30933	804
28,32000	808
28,33067	806
28,34133	807
28,35200	807
28,36267	817
28,37333	815
28,38400	815
28,39467	804
28,40533	814
28,41600	814
28,42667	820
28,43733	818
28,44800	818
28,45867	822
28,46933	819
28,48000	816
28,49067	816
28,50133	826
28,51200	825
28,52267	821
28,53333	813
28,54400	823
28,55467	825
28,56533	826
28,57600	821
28,58667	824
28,59733	835
28,60800	830
28,61867	828
28,62933	827
28,64000	824
28,65067	828
28,66133	830
28,67200	831
28,68267	834
28,69333	841
28,70400	841
28,71467	843
28,72533	840
28,73600	852
28,74667	854
28,75733	853
28,76800	845
28,77867	845
28,78933	851
28,80000	850
28,81067	850
28,82133	850
28,83200	859
28,84267	860
28,85333	866
28,86400	862
28,87467	868
28,88533	864
28,89600	866
28,90667	863
28,91733	862
28,92800	867
28,93867	865
28,94933	867
28,96000	866
28,97067	875
28,98133	877
28,99200	877
29,00267	872
29,01333	873
29,02400	972
29,03467	925
29,04533	899
29,05600	884
29,06667	889
29,07733	885
29,08800	890
29,09867	887
29,10933	891
29,12000	897
29,13067	903
29,14133	901
29,15200	893
29,16267	906
29,17333	906
29,18400	902
29,19467	902
29,20533	916
29,21600	918
29,22667	915
29,23733	915
29,24800	917
29,25867	921
29,26933	929
29,28000	927
29,29067	923
29,30133	926
29,31200	931
29,32267	929
29,33333	929
29,34400	935
29,35467	942
29,36533	937
29,37600	939
29,38667	943
29,39733	954
29,40800	955
29,41867	954
29,42933	960
29,44000	965
29,45067	972
29,46133	976
29,47200	985
29,48267	1003
29,49333	1029
29,50400	1057
29,51467	1093
29,52533	1134
29,53600	1188
29,54667	1249
29,55733	1317
29,56800	1379
29,57867	1448
29,58933	1518
29,60000	1588
29,61067	1654
29,62133	1706
29,63200	1754
29,64267	1799
29,65333	1826
29,66400	1840
29,67467	1837
29,68533	1817
29,69600	1778
29,70667	1722
29,71733	1650
29,72800	1585
29,73867	1522
29,74933	1464
29,76000	1408
29,77067	1372
29,78133	1339
29,79200	1318
29,80267	1296
29,81333	1276
29,82400	1269
29,83467	1258
29,84533	1243
29,85600	1227
29,86667	1223
29,87733	1220
29,88800	1210
29,89867	1211
29,90933	1202
29,92000	1201
29,93067	1199
29,94133	1198
29,95200	1193
29,96267	1196
29,97333	1195
29,98400	1194
29,99467	1193
30,00533	1193
30,01600	1194
30,02667	1191
30,03733	1191
30,04800	1192
30,05867	1191
30,06933	1192
30,08000	1193
30,09067	1190
30,10133	1192
30,11200	1191
30,12267	1188
30,13333	1194
30,14400	1190
30,15467	1192
30,16533	1195
30,17600	1197
30,18667	1199
30,19733	1203
30,20800	1205
30,21867	1208
30,22933	1212
30,24000	1217
30,25067	1222
30,26133	1227
30,27200	1230
30,28267	1236
30,29333	1241
30,30400	1251
30,31467	1260
30,32533	1260
30,33600	1264
30,34667	1269
30,35733	1277
30,36800	1287
30,37867	1295
30,38933	1295
30,40000	1307
30,41067	1315
30,42133	1320
30,43200	1328
30,44267	1331
30,45333	1338
30,46400	1345
30,47467	1345
30,48533	1349
30,49600	1352
30,50667	1353
30,51733	1353
30,52800	1352
30,53867	1357
30,54933	1351
30,56000	1349
30,57067	1342
30,58133	1336
30,59200	1335
30,60267	1329
30,61333	1326
30,62400	1325
30,63467	1329
30,64533	1335
30,65600	1337
30,66667	1351
30,67733	1356
30,68800	1359
30,69867	1365
30,70933	1369
30,72000	1381
30,73067	1382
30,74133	1386
30,75200	1389
30,76267	1394
30,77333	1401
30,78400	1403
30,79467	1400
30,80533	1400
30,81600	1397
30,82667	1399
30,83733	1399
30,84800	1394
30,85867	1396
30,86933	1392
30,88000	1394
30,89067	1394
30,90133	1393
30,91200	1395
30,92267	1398
30,93333	1402
30,94400	1398
30,95467	1396
30,96533	1401
30,97600	1400
30,98667	1405
30,99733	1402
31,00800	1407
31,01867	1413
31,02933	1416
31,04000	1414
31,05067	1415
31,06133	1420
31,07200	1419
31,08267	1416
31,09333	1414
31,10400	1408
31,11467	1407
31,12533	1403
31,13600	1395
31,14667	1389
31,15733	1389
31,16800	1384
31,17867	1378
31,18933	1380
31,20000	1373
31,21067	1370
31,22133	1372
31,23200	1372
31,24267	1379
31,25333	1379
31,26400	1377
31,27467	1376
31,28533	1378
31,29600	1376
31,30667	1373
31,31733	1375
31,32800	1370
31,33867	1373
31,34933	1368
31,36000	1365
31,37067	1358
31,38133	1356
31,39200	1353
31,40267	1356
31,41333	1352
31,42400	1347
31,43467	1350
31,44533	1352
31,45600	1351
31,46667	1349
31,47733	1347
31,48800	1351
31,49867	1362
31,50933	1358
31,52000	1358
31,53067	1358
31,54133	1367
31,55200	1363
31,56267	1363
31,57333	1368
31,58400	1371
31,59467	1368
31,60533	1371
31,61600	1370
31,62667	1376
31,63733	1381
31,64800	1379
31,65867	1382
31,66933	1382
31,68000	1390
31,69067	1391
31,70133	1394
31,71200	1394
31,72267	1392
31,73333	1396
31,74400	1398
31,75467	1396
31,76533	1404
31,77600	1405
31,78667	1401
31,79733	1402
31,80800	1403
31,81867	1401
31,82933	1407
31,84000	1406
31,85067	1408
31,86133	1408
31,87200	1409
31,88267	1414
31,89333	1414
31,90400	1415
31,91467	1413
31,92533	1416
31,93600	1419
31,94667	1425
31,95733	1420
31,96800	1422
31,97867	1425
31,98933	1425
32,00000	1430
32,01067	1429
32,02133	1430
32,03200	1427
32,04267	1430
32,05333	1431
32,06400	1435
32,07467	1435
32,08533	1437
32,09600	1437
32,10667	1440
32,11733	1437
32,12800	1437
32,13867	1435
32,14933	1436
32,16000	1437
32,17067	1438
32,18133	1436
32,19200	1440
32,20267	1443
32,21333	1444
32,22400	1444
32,23467	1445
32,24533	1444
32,25600	1445
32,26667	1446
32,27733	1449
32,28800	1451
32,29867	1451
32,30933	1456
32,32000	1460
32,33067	1457
32,34133	1460
32,35200	1462
32,36267	1464
32,37333	1463
32,38400	1463
32,39467	1465
32,40533	1469
32,41600	1460
32,42667	1461
32,43733	1466
32,44800	1470
32,45867	1472
32,46933	1470
32,48000	1467
32,49067	1467
32,50133	1469
32,51200	1469
32,52267	1472
32,53333	1469
32,54400	1468
32,55467	1465
32,56533	1466
32,57600	1462
32,58667	1470
32,59733	1472
32,60800	1472
32,61867	1479
32,62933	1481
32,64000	1476
32,65067	1478
32,66133	1480
32,67200	1481
32,68267	1482
32,69333	1486
32,70400	1490
32,71467	1487
32,72533	1492
32,73600	1490
32,74667	1495
32,75733	1502
32,76800	1503
32,77867	1499
32,78933	1495
32,80000	1499
32,81067	1511
32,82133	1508
32,83200	1507
32,84267	1515
32,85333	1512
32,86400	1514
32,87467	1515
32,88533	1518
32,89600	1515
32,90667	1519
32,91733	1517
32,92800	1517
32,93867	1516
32,94933	1513
32,96000	1516
32,97067	1527
32,98133	1525
32,99200	1523
33,00267	1524
33,01333	1527
33,02400	1530
33,03467	1533
33,04533	1532
33,05600	1530
33,06667	1528
33,07733	1534
33,08800	1532
33,09867	1535
33,10933	1536
33,12000	1538
33,13067	1537
33,14133	1534
33,15200	1536
33,16267	1539
33,17333	1542
33,18400	1544
33,19467	1541
33,20533	1537
33,21600	1544
33,22667	1545
33,23733	1545
33,24800	1548
33,25867	1539
33,26933	1544
33,28000	1550
33,29067	1550
33,30133	1548
33,31200	1548
33,32267	1550
33,33333	1551
33,34400	1554
33,35467	1554
33,36533	1554
33,37600	1553
33,38667	1557
33,39733	1554
33,40800	1555
33,41867	1560
33,42933	1559
33,44000	1560
33,45067	1555
33,46133	1561
33,47200	1563
33,48267	1565
33,49333	1564
33,50400	1562
33,51467	1564
33,52533	1567
33,53600	1565
33,54667	1564
33,55733	1564
33,56800	1565
33,57867	1568
33,58933	1565
33,60000	1563
33,61067	1569
33,62133	1574
33,63200	1571
33,64267	1563
33,65333	1564
33,66400	1558
33,67467	1560
33,68533	1562
33,69600	1561
33,70667	1564
33,71733	1561
33,72800	1558
33,73867	1562
33,74933	1561
33,76000	1566
33,77067	1560
33,78133	1562
33,79200	1566
33,80267	1569
33,81333	1568
33,82400	1566
33,83467	1566
33,84533	1568
33,85600	1573
33,86667	1571
33,87733	1573
33,88800	1578
33,89867	1577
33,90933	1573
33,92000	1577
33,93067	1576
33,94133	1579
33,95200	1580
33,96267	1579
33,97333	1580
33,98400	1575
33,99467	1575
34,00533	1570
34,01600	1573
34,02667	1574
34,03733	1572
34,04800	1576
34,05867	1576
34,06933	1575
34,08000	1576
34,09067	1580
34,10133	1580
34,11200	1578
34,12267	1575
34,13333	1580
34,14400	1581
34,15467	1580
34,16533	1584
34,17600	1583
34,18667	1586
34,19733	1582
34,20800	1588
34,21867	1591
34,22933	1589
34,24000	1587
34,25067	1591
34,26133	1594
34,27200	1587
34,28267	1587
34,29333	1589
34,30400	1593
34,31467	1596
34,32533	1601
34,33600	1595
34,34667	1598
34,35733	1598
34,36800	1599
34,37867	1598
34,38933	1600
34,40000	1599
34,41067	1599
34,42133	1602
34,43200	1606
34,44267	1606
34,45333	1608
34,46400	1608
34,47467	1608
34,48533	1605
34,49600	1608
34,50667	1611
34,51733	1613
34,52800	1608
34,53867	1607
34,54933	1608
34,56000	1610
34,57067	1609
34,58133	1610
34,59200	1612
34,60267	1609
34,61333	1609
34,62400	1611
34,63467	1610
34,64533	1606
34,65600	1605
34,66667	1601
34,67733	1600
34,68800	1603
34,69867	1604
34,70933	1606
34,72000	1610
34,73067	1606
34,74133	1607
34,75200	1603
34,76267	1600
34,77333	1600
34,78400	1603
34,79467	1604
34,80533	1602
34,81600	1606
34,82667	1608
34,83733	1608
34,84800	1611
34,85867	1600
34,86933	1606
34,88000	1605
34,89067	1601
34,90133	1604
34,91200	1607
34,92267	1601
34,93333	1602
34,94400	1606
34,95467	1606
34,96533	1606
34,97600	1608
34,98667	1611
34,99733	1611
35,00800	1606
35,01867	1606
35,02933	1607
35,04000	1609
35,05067	1608
35,06133	1608
35,07200	1602
35,08267	1605
35,09333	1605
35,10400	1603
35,11467	1608
35,12533	1608
35,13600	1606
35,14667	1609
35,15733	1608
35,16800	1609
35,17867	1610
35,18933	1611
35,20000	1607
35,21067	1609
35,22133	1602
35,23200	1602
35,24267	1604
35,25333	1610
35,26400	1607
35,27467	1613
35,28533	1605
35,29600	1601
35,30667	1602
35,31733	1608
35,32800	1610
35,33867	1611
35,34933	1613
35,36000	1612
35,37067	1607
35,38133	1610
35,39200	1609
35,40267	1606
35,41333	1608
35,42400	1608
35,43467	1604
35,44533	1604
35,45600	1609
35,46667	1615
35,47733	1612
35,48800	1613
35,49867	1612
35,50933	1611
35,52000	1615
35,53067	1619
35,54133	1620
35,55200	1617
35,56267	1616
35,57333	1618
35,58400	1614
35,59467	1610
35,60533	1607
35,61600	1620
35,62667	1621
35,63733	1618
35,64800	1617
35,65867	1619
35,66933	1618
35,68000	1617
35,69067	1619
35,70133	1619
35,71200	1622
35,72267	1618
35,73333	1620
35,74400	1619
35,75467	1614
35,76533	1616
35,77600	1618
35,78667	1621
35,79733	1623
35,80800	1622
35,81867	1619
35,82933	1623
35,84000	1622
35,85067	1621
35,86133	1625
35,87200	1626
35,88267	1628
35,89333	1628
35,90400	1628
35,91467	1629
35,92533	1632
35,93600	1632
35,94667	1629
35,95733	1632
35,96800	1627
35,97867	1626
35,98933	1630
36,00000	1630
36,01067	1635


