[Header]
Application Name	LabSolutions
Version	5.71
Data File Name	C:\LabSolutions\Data\Project1\Daniel Moreira\COMPOUND1\2025.07.03_compound1_2_002.lcd
Output Date	02/01/2013
Output Time	20:55:04

[File Information]
Type	Data File
Generated	02/01/2013 15:23:43
Generated by	System Administrator
Modified	02/01/2013 17:44:52
Modified by	System Administrator

[Sample Information]
Operator Name	System Administrator
Acquired	02/01/2013 15:24:06
Sample Type	0:Unknown
Level	0
Sample Name	compound1
Sample ID	compound1
ISTD Amount1	1
ISTD Amount2	1
ISTD Amount3	1
ISTD Amount4	1
ISTD Amount5	1
ISTD Amount6	1
ISTD Amount7	1
ISTD Amount8	1
ISTD Amount9	1
ISTD Amount10	1
ISTD Amount11	1
ISTD Amount12	1
ISTD Amount13	1
ISTD Amount14	1
ISTD Amount15	1
ISTD Amount16	1
ISTD Amount17	1
ISTD Amount18	1
ISTD Amount19	1
ISTD Amount20	1
ISTD Amount21	1
ISTD Amount22	1
ISTD Amount23	1
ISTD Amount24	1
ISTD Amount25	1
ISTD Amount26	1
ISTD Amount27	1
ISTD Amount28	1
ISTD Amount29	1
ISTD Amount30	1
ISTD Amount31	1
ISTD Amount32	1
Sample Amount	1
Dilution Factor	1
Vial#	49
Injection Volume	25

[Original Files]
Data File	C:\LabSolutions\Data\Project1\Daniel Moreira\COMPOUND1\2025.07.03_compound1_2_002.lcd
Method File	C:\LabSolutions\Data\Project1\Daniel Moreira\COMPOUND1.lcm
Batch File	C:\LabSolutions\Data\Project1\Daniel Moreira\COMPOUND1\2025.07.03_compound1.lcb
Report Format File	C:\LabSolutions\System\DEFAULT.lsr

[File Description]


[Configuration]
Instrument Name	HPLC-PC-Instrument
Instrument #	2
Line #	1
# of Detectors	1
Detector ID	PDA
Detector Name	PDA
# of Channels	1

[Peak Table(PDA-Ch2)]
# of Peaks	21
Peak#	R.Time	I.Time	F.Time	Area	Height	A/H	Conc.	Mark	ID#	Name	k'	Plate #	Plate Ht.	Tailing	Resolution	Sep.Factor	Area Ratio	Height Ratio	Conc. %	Norm Conc.
1	0,719	0,107	1,248	118401	25123	4,713	6,429	   			0,000	19	7956,974	0,856	0,000	0,000	0	0	0,000	0,000
2	2,842	1,941	2,965	16347	959	17,051	0,888	   			2,955	1761	85,183	0,570	4,552	0,000	0	0	0,000	0,000
3	3,168	2,965	3,232	3075	259	11,862	0,167	   			3,409	917	163,655	0,000	0,947	1,154	0	0	0,000	0,000
4	3,352	3,232	3,573	7708	769	10,022	0,419	 V 			3,665	2172	69,074	0,000	0,520	1,075	0	0	0,000	0,000
5	12,247	12,075	12,459	3187	352	9,048	0,173	   			16,045	36099	4,155	0,000	32,612	4,378	0	0	0,000	0,000
6	12,605	12,459	12,779	1864	174	10,680	0,101	 V 			16,543	27513	5,452	0,000	1,274	1,031	0	0	0,000	0,000
7	12,977	12,779	13,227	2233	226	9,896	0,121	 V 			17,061	40287	3,723	0,000	1,324	1,031	0	0	0,000	0,000
8	13,379	13,248	13,568	3182	468	6,795	0,173	   			17,620	73336	2,045	1,155	1,761	1,033	0	0	0,000	0,000
9	14,376	14,197	14,592	3956	254	15,586	0,215	   			19,009	11778	12,736	0,000	2,742	1,079	0	0	0,000	0,000
10	14,936	14,592	15,061	70030	9209	7,605	3,803	 V 			19,788	84939	1,766	0,000	1,524	1,041	0	0	0,000	0,000
11	15,236	15,061	16,960	1543531	200824	7,686	83,811	SV 			20,205	88759	1,690	1,336	1,464	1,021	0	0	0,000	0,000
12	15,552	15,488	15,637	3241	796	4,070	0,176	T  			20,644	215348	0,697	1,099	1,863	1,022	0	0	0,000	0,000
13	15,718	15,648	15,787	2723	555	4,910	0,148	T  			20,876	187755	0,799	0,000	1,193	1,011	0	0	0,000	0,000
14	15,884	15,787	16,000	14541	2102	6,919	0,790	TV 			21,106	94999	1,579	0,000	0,942	1,011	0	0	0,000	0,000
15	16,062	16,000	16,181	5536	897	6,173	0,301	TV 			21,354	71294	2,104	0,000	0,798	1,012	0	0	0,000	0,000
16	16,343	16,224	16,491	14095	2105	6,695	0,765	T  			21,745	105513	1,422	1,103	1,273	1,018	0	0	0,000	0,000
17	16,725	16,651	16,875	1134	213	5,335	0,062	TV 			22,278	163277	0,919	0,000	2,086	1,024	0	0	0,000	0,000
18	19,399	19,157	19,765	10491	823	12,743	0,570	   			25,998	52315	2,867	1,360	10,591	1,167	0	0	0,000	0,000
19	26,259	26,037	26,507	4775	411	11,619	0,259	   			35,546	110662	1,355	1,100	20,948	1,367	0	0	0,000	0,000
20	27,652	27,424	27,819	2655	253	10,502	0,144	   			37,485	145025	1,034	0,934	4,596	1,055	0	0	0,000	0,000
21	29,640	29,419	29,952	8969	755	11,879	0,487	   			40,252	145831	1,029	1,214	6,616	1,074	0	0	0,000	0,000

[Compound Results(PDA)]
# of IDs	0

[PDA Multi Chromatogram(Ch2)]
# of Points	      3378
Interval(msec)	640
Start Time(min)	0
End Time(min)	36,0213
Intensity Units	mAU
Intensity Multiplier	1
Type	MultiChrom
Wavelength(nm)	280
Bandwidth(nm)	4
R.Time (min)	Intensity
0,00000	0
0,01067	0
0,02133	0
0,03200	0
0,04267	0
0,05333	0
0,06400	0
0,07467	0
0,08533	0
0,09600	0
0,10667	0
0,11733	13
0,12800	28
0,13867	49
0,14933	72
0,16000	87
0,17067	108
0,18133	124
0,19200	142
0,20267	147
0,21333	161
0,22400	174
0,23467	193
0,24533	202
0,25600	216
0,26667	232
0,27733	251
0,28800	269
0,29867	289
0,30933	306
0,32000	322
0,33067	335
0,34133	347
0,35200	359
0,36267	369
0,37333	377
0,38400	388
0,39467	393
0,40533	405
0,41600	410
0,42667	416
0,43733	423
0,44800	437
0,45867	449
0,46933	466
0,48000	473
0,49067	485
0,50133	500
0,51200	520
0,52267	529
0,53333	539
0,54400	552
0,55467	570
0,56533	582
0,57600	591
0,58667	607
0,59733	622
0,60800	642
0,61867	658
0,62933	682
0,64000	703
0,65067	730
0,66133	764
0,67200	813
0,68267	886
0,69333	1008
0,70400	1495
0,71467	23791
0,72533	20202
0,73600	9859
0,74667	8485
0,75733	7142
0,76800	5486
0,77867	4081
0,78933	3030
0,80000	2266
0,81067	1693
0,82133	1248
0,83200	893
0,84267	593
0,85333	329
0,86400	97
0,87467	-107
0,88533	-301
0,89600	-469
0,90667	-623
0,91733	-763
0,92800	-889
0,93867	-1010
0,94933	-1117
0,96000	-1220
0,97067	-1312
0,98133	-1397
0,99200	-1477
1,00267	-1555
1,01333	-1624
1,02400	-1692
1,03467	-1756
1,04533	-1816
1,05600	-1868
1,06667	-1918
1,07733	-1964
1,08800	-2010
1,09867	-2047
1,10933	-2073
1,12000	-2097
1,13067	-2154
1,14133	-2199
1,15200	-2232
1,16267	-2261
1,17333	-2293
1,18400	-2325
1,19467	-2355
1,20533	-2384
1,21600	-2407
1,22667	-2432
1,23733	-2462
1,24800	-2486
1,25867	-2508
1,26933	-2536
1,28000	-2555
1,29067	-2579
1,30133	-2596
1,31200	-2622
1,32267	-2641
1,33333	-2609
1,34400	-2642
1,35467	-2682
1,36533	-2711
1,37600	-2737
1,38667	-2749
1,39733	-2773
1,40800	-2787
1,41867	-2796
1,42933	-2813
1,44000	-2832
1,45067	-2840
1,46133	-2851
1,47200	-2858
1,48267	-2878
1,49333	-2885
1,50400	-2894
1,51467	-2902
1,52533	-2913
1,53600	-2920
1,54667	-2927
1,55733	-2934
1,56800	-2940
1,57867	-2942
1,58933	-2945
1,60000	-2946
1,61067	-2950
1,62133	-2952
1,63200	-2953
1,64267	-2957
1,65333	-2959
1,66400	-2963
1,67467	-2960
1,68533	-2961
1,69600	-2963
1,70667	-2957
1,71733	-2950
1,72800	-2951
1,73867	-2952
1,74933	-2947
1,76000	-2939
1,77067	-2937
1,78133	-2941
1,79200	-2935
1,80267	-2931
1,81333	-2929
1,82400	-2922
1,83467	-2919
1,84533	-2913
1,85600	-2913
1,86667	-2906
1,87733	-2899
1,88800	-2895
1,89867	-2891
1,90933	-2879
1,92000	-2873
1,93067	-2867
1,94133	-2864
1,95200	-2857
1,96267	-2848
1,97333	-2844
1,98400	-2837
1,99467	-2827
2,00533	-2824
2,01600	-2818
2,02667	-2806
2,03733	-2787
2,04800	-2784
2,05867	-2779
2,06933	-2775
2,08000	-2768
2,09067	-2760
2,10133	-2751
2,11200	-2745
2,12267	-2732
2,13333	-2721
2,14400	-2716
2,15467	-2708
2,16533	-2697
2,17600	-2690
2,18667	-2682
2,19733	-2670
2,20800	-2660
2,21867	-2652
2,22933	-2648
2,24000	-2639
2,25067	-2628
2,26133	-2622
2,27200	-2618
2,28267	-2609
2,29333	-2598
2,30400	-2587
2,31467	-2575
2,32533	-2573
2,33600	-2562
2,34667	-2551
2,35733	-2546
2,36800	-2531
2,37867	-2525
2,38933	-2515
2,40000	-2511
2,41067	-2504
2,42133	-2494
2,43200	-2486
2,44267	-2473
2,45333	-2467
2,46400	-2463
2,47467	-2451
2,48533	-2443
2,49600	-2433
2,50667	-2425
2,51733	-2416
2,52800	-2409
2,53867	-2405
2,54933	-2395
2,56000	-2383
2,57067	-2376
2,58133	-2364
2,59200	-2357
2,60267	-2353
2,61333	-2348
2,62400	-2337
2,63467	-2329
2,64533	-2321
2,65600	-2313
2,66667	-2303
2,67733	-2292
2,68800	-2279
2,69867	-2264
2,70933	-2243
2,72000	-2223
2,73067	-2203
2,74133	-2167
2,75200	-2128
2,76267	-2089
2,77333	-2028
2,78400	-1953
2,79467	-1876
2,80533	-1793
2,81600	-1720
2,82667	-1658
2,83733	-1612
2,84800	-1617
2,85867	-1661
2,86933	-1747
2,88000	-1846
2,89067	-1949
2,90133	-2059
2,91200	-2178
2,92267	-2295
2,93333	-2396
2,94400	-2466
2,95467	-2512
2,96533	-2531
2,97600	-2518
2,98667	-2489
2,99733	-2448
3,00800	-2405
3,01867	-2359
3,02933	-2318
3,04000	-2281
3,05067	-2253
3,06133	-2233
3,07200	-2205
3,08267	-2181
3,09333	-2171
3,10400	-2147
3,11467	-2130
3,12533	-2107
3,13600	-2082
3,14667	-2066
3,15733	-2051
3,16800	-2044
3,17867	-2040
3,18933	-2036
3,20000	-2038
3,21067	-2039
3,22133	-2041
3,23200	-2037
3,24267	-2020
3,25333	-1992
3,26400	-1947
3,27467	-1865
3,28533	-1772
3,29600	-1670
3,30667	-1551
3,31733	-1457
3,32800	-1382
3,33867	-1345
3,34933	-1328
3,36000	-1335
3,37067	-1367
3,38133	-1404
3,39200	-1444
3,40267	-1494
3,41333	-1533
3,42400	-1572
3,43467	-1607
3,44533	-1648
3,45600	-1679
3,46667	-1710
3,47733	-1737
3,48800	-1766
3,49867	-1781
3,50933	-1796
3,52000	-1815
3,53067	-1826
3,54133	-1838
3,55200	-1845
3,56267	-1847
3,57333	-1848
3,58400	-1848
3,59467	-1848
3,60533	-1846
3,61600	-1846
3,62667	-1846
3,63733	-1844
3,64800	-1842
3,65867	-1833
3,66933	-1830
3,68000	-1823
3,69067	-1817
3,70133	-1817
3,71200	-1811
3,72267	-1807
3,73333	-1800
3,74400	-1797
3,75467	-1790
3,76533	-1784
3,77600	-1778
3,78667	-1773
3,79733	-1770
3,80800	-1767
3,81867	-1767
3,82933	-1764
3,84000	-1762
3,85067	-1760
3,86133	-1753
3,87200	-1752
3,88267	-1749
3,89333	-1746
3,90400	-1744
3,91467	-1739
3,92533	-1740
3,93600	-1735
3,94667	-1732
3,95733	-1724
3,96800	-1725
3,97867	-1720
3,98933	-1714
4,00000	-1712
4,01067	-1707
4,02133	-1701
4,03200	-1701
4,04267	-1695
4,05333	-1691
4,06400	-1692
4,07467	-1685
4,08533	-1691
4,09600	-1690
4,10667	-1684
4,11733	-1680
4,12800	-1681
4,13867	-1679
4,14933	-1673
4,16000	-1669
4,17067	-1669
4,18133	-1663
4,19200	-1663
4,20267	-1657
4,21333	-1656
4,22400	-1654
4,23467	-1655
4,24533	-1652
4,25600	-1652
4,26667	-1649
4,27733	-1648
4,28800	-1646
4,29867	-1647
4,30933	-1645
4,32000	-1641
4,33067	-1638
4,34133	-1639
4,35200	-1642
4,36267	-1638
4,37333	-1635
4,38400	-1629
4,39467	-1629
4,40533	-1634
4,41600	-1636
4,42667	-1633
4,43733	-1628
4,44800	-1625
4,45867	-1624
4,46933	-1617
4,48000	-1621
4,49067	-1618
4,50133	-1619
4,51200	-1612
4,52267	-1619
4,53333	-1616
4,54400	-1611
4,55467	-1614
4,56533	-1618
4,57600	-1613
4,58667	-1614
4,59733	-1612
4,60800	-1617
4,61867	-1614
4,62933	-1611
4,64000	-1619
4,65067	-1617
4,66133	-1616
4,67200	-1617
4,68267	-1617
4,69333	-1612
4,70400	-1610
4,71467	-1613
4,72533	-1610
4,73600	-1610
4,74667	-1609
4,75733	-1604
4,76800	-1603
4,77867	-1601
4,78933	-1603
4,80000	-1604
4,81067	-1601
4,82133	-1607
4,83200	-1606
4,84267	-1608
4,85333	-1612
4,86400	-1606
4,87467	-1603
4,88533	-1603
4,89600	-1603
4,90667	-1602
4,91733	-1605
4,92800	-1608
4,93867	-1607
4,94933	-1603
4,96000	-1607
4,97067	-1609
4,98133	-1612
4,99200	-1608
5,00267	-1605
5,01333	-1608
5,02400	-1611
5,03467	-1612
5,04533	-1614
5,05600	-1610
5,06667	-1607
5,07733	-1605
5,08800	-1603
5,09867	-1605
5,10933	-1603
5,12000	-1603
5,13067	-1599
5,14133	-1605
5,15200	-1600
5,16267	-1606
5,17333	-1604
5,18400	-1601
5,19467	-1595
5,20533	-1592
5,21600	-1596
5,22667	-1596
5,23733	-1593
5,24800	-1594
5,25867	-1593
5,26933	-1591
5,28000	-1590
5,29067	-1592
5,30133	-1591
5,31200	-1592
5,32267	-1596
5,33333	-1593
5,34400	-1595
5,35467	-1586
5,36533	-1587
5,37600	-1590
5,38667	-1592
5,39733	-1589
5,40800	-1586
5,41867	-1584
5,42933	-1588
5,44000	-1596
5,45067	-1590
5,46133	-1592
5,47200	-1594
5,48267	-1591
5,49333	-1595
5,50400	-1585
5,51467	-1590
5,52533	-1593
5,53600	-1592
5,54667	-1595
5,55733	-1595
5,56800	-1595
5,57867	-1591
5,58933	-1593
5,60000	-1593
5,61067	-1597
5,62133	-1594
5,63200	-1595
5,64267	-1602
5,65333	-1601
5,66400	-1600
5,67467	-1603
5,68533	-1603
5,69600	-1605
5,70667	-1601
5,71733	-1604
5,72800	-1602
5,73867	-1601
5,74933	-1602
5,76000	-1598
5,77067	-1601
5,78133	-1599
5,79200	-1599
5,80267	-1597
5,81333	-1597
5,82400	-1596
5,83467	-1597
5,84533	-1602
5,85600	-1595
5,86667	-1599
5,87733	-1597
5,88800	-1594
5,89867	-1596
5,90933	-1593
5,92000	-1594
5,93067	-1597
5,94133	-1595
5,95200	-1592
5,96267	-1595
5,97333	-1594
5,98400	-1595
5,99467	-1591
6,00533	-1591
6,01600	-1588
6,02667	-1590
6,03733	-1590
6,04800	-1591
6,05867	-1587
6,06933	-1587
6,08000	-1590
6,09067	-1591
6,10133	-1587
6,11200	-1587
6,12267	-1587
6,13333	-1590
6,14400	-1588
6,15467	-1594
6,16533	-1591
6,17600	-1589
6,18667	-1590
6,19733	-1591
6,20800	-1592
6,21867	-1592
6,22933	-1596
6,24000	-1598
6,25067	-1596
6,26133	-1599
6,27200	-1599
6,28267	-1598
6,29333	-1596
6,30400	-1598
6,31467	-1600
6,32533	-1599
6,33600	-1596
6,34667	-1599
6,35733	-1600
6,36800	-1596
6,37867	-1594
6,38933	-1597
6,40000	-1594
6,41067	-1594
6,42133	-1596
6,43200	-1599
6,44267	-1603
6,45333	-1602
6,46400	-1597
6,47467	-1601
6,48533	-1600
6,49600	-1598
6,50667	-1599
6,51733	-1597
6,52800	-1598
6,53867	-1600
6,54933	-1599
6,56000	-1599
6,57067	-1595
6,58133	-1598
6,59200	-1600
6,60267	-1605
6,61333	-1601
6,62400	-1598
6,63467	-1600
6,64533	-1601
6,65600	-1603
6,66667	-1601
6,67733	-1600
6,68800	-1608
6,69867	-1611
6,70933	-1609
6,72000	-1607
6,73067	-1606
6,74133	-1607
6,75200	-1603
6,76267	-1603
6,77333	-1604
6,78400	-1606
6,79467	-1604
6,80533	-1608
6,81600	-1603
6,82667	-1602
6,83733	-1601
6,84800	-1600
6,85867	-1600
6,86933	-1596
6,88000	-1598
6,89067	-1603
6,90133	-1600
6,91200	-1601
6,92267	-1598
6,93333	-1603
6,94400	-1601
6,95467	-1601
6,96533	-1596
6,97600	-1600
6,98667	-1600
6,99733	-1601
7,00800	-1600
7,01867	-1600
7,02933	-1600
7,04000	-1596
7,05067	-1595
7,06133	-1593
7,07200	-1591
7,08267	-1592
7,09333	-1594
7,10400	-1593
7,11467	-1595
7,12533	-1595
7,13600	-1595
7,14667	-1593
7,15733	-1593
7,16800	-1591
7,17867	-1590
7,18933	-1587
7,20000	-1585
7,21067	-1592
7,22133	-1588
7,23200	-1584
7,24267	-1584
7,25333	-1582
7,26400	-1585
7,27467	-1581
7,28533	-1580
7,29600	-1576
7,30667	-1579
7,31733	-1582
7,32800	-1576
7,33867	-1569
7,34933	-1568
7,36000	-1569
7,37067	-1569
7,38133	-1567
7,39200	-1567
7,40267	-1565
7,41333	-1564
7,42400	-1561
7,43467	-1558
7,44533	-1561
7,45600	-1562
7,46667	-1561
7,47733	-1559
7,48800	-1556
7,49867	-1554
7,50933	-1548
7,52000	-1552
7,53067	-1549
7,54133	-1548
7,55200	-1553
7,56267	-1554
7,57333	-1554
7,58400	-1557
7,59467	-1551
7,60533	-1548
7,61600	-1546
7,62667	-1547
7,63733	-1546
7,64800	-1546
7,65867	-1541
7,66933	-1538
7,68000	-1542
7,69067	-1541
7,70133	-1542
7,71200	-1535
7,72267	-1541
7,73333	-1541
7,74400	-1533
7,75467	-1532
7,76533	-1529
7,77600	-1522
7,78667	-1524
7,79733	-1519
7,80800	-1519
7,81867	-1517
7,82933	-1514
7,84000	-1517
7,85067	-1510
7,86133	-1509
7,87200	-1504
7,88267	-1503
7,89333	-1496
7,90400	-1497
7,91467	-1496
7,92533	-1495
7,93600	-1494
7,94667	-1496
7,95733	-1490
7,96800	-1487
7,97867	-1482
7,98933	-1482
8,00000	-1470
8,01067	-1471
8,02133	-1470
8,03200	-1473
8,04267	-1472
8,05333	-1465
8,06400	-1466
8,07467	-1465
8,08533	-1466
8,09600	-1465
8,10667	-1459
8,11733	-1461
8,12800	-1458
8,13867	-1451
8,14933	-1456
8,16000	-1454
8,17067	-1455
8,18133	-1454
8,19200	-1458
8,20267	-1458
8,21333	-1458
8,22400	-1456
8,23467	-1451
8,24533	-1455
8,25600	-1454
8,26667	-1454
8,27733	-1455
8,28800	-1452
8,29867	-1447
8,30933	-1451
8,32000	-1442
8,33067	-1447
8,34133	-1445
8,35200	-1445
8,36267	-1446
8,37333	-1449
8,38400	-1446
8,39467	-1448
8,40533	-1449
8,41600	-1449
8,42667	-1444
8,43733	-1446
8,44800	-1447
8,45867	-1454
8,46933	-1452
8,48000	-1439
8,49067	-1442
8,50133	-1446
8,51200	-1442
8,52267	-1444
8,53333	-1440
8,54400	-1443
8,55467	-1449
8,56533	-1447
8,57600	-1442
8,58667	-1444
8,59733	-1445
8,60800	-1445
8,61867	-1443
8,62933	-1438
8,64000	-1443
8,65067	-1439
8,66133	-1441
8,67200	-1438
8,68267	-1435
8,69333	-1436
8,70400	-1436
8,71467	-1428
8,72533	-1434
8,73600	-1430
8,74667	-1434
8,75733	-1436
8,76800	-1438
8,77867	-1439
8,78933	-1445
8,80000	-1445
8,81067	-1445
8,82133	-1451
8,83200	-1457
8,84267	-1460
8,85333	-1465
8,86400	-1466
8,87467	-1464
8,88533	-1469
8,89600	-1475
8,90667	-1483
8,91733	-1488
8,92800	-1492
8,93867	-1499
8,94933	-1501
8,96000	-1506
8,97067	-1508
8,98133	-1510
8,99200	-1512
9,00267	-1507
9,01333	-1511
9,02400	-1512
9,03467	-1516
9,04533	-1521
9,05600	-1522
9,06667	-1525
9,07733	-1524
9,08800	-1531
9,09867	-1537
9,10933	-1541
9,12000	-1547
9,13067	-1541
9,14133	-1540
9,15200	-1545
9,16267	-1549
9,17333	-1555
9,18400	-1551
9,19467	-1556
9,20533	-1563
9,21600	-1560
9,22667	-1562
9,23733	-1563
9,24800	-1564
9,25867	-1562
9,26933	-1565
9,28000	-1563
9,29067	-1562
9,30133	-1565
9,31200	-1567
9,32267	-1564
9,33333	-1564
9,34400	-1575
9,35467	-1577
9,36533	-1575
9,37600	-1578
9,38667	-1580
9,39733	-1579
9,40800	-1589
9,41867	-1596
9,42933	-1603
9,44000	-1602
9,45067	-1599
9,46133	-1605
9,47200	-1602
9,48267	-1604
9,49333	-1610
9,50400	-1610
9,51467	-1611
9,52533	-1615
9,53600	-1615
9,54667	-1619
9,55733	-1620
9,56800	-1618
9,57867	-1617
9,58933	-1619
9,60000	-1622
9,61067	-1625
9,62133	-1626
9,63200	-1633
9,64267	-1640
9,65333	-1639
9,66400	-1644
9,67467	-1649
9,68533	-1648
9,69600	-1653
9,70667	-1653
9,71733	-1660
9,72800	-1664
9,73867	-1664
9,74933	-1665
9,76000	-1671
9,77067	-1673
9,78133	-1671
9,79200	-1670
9,80267	-1669
9,81333	-1673
9,82400	-1674
9,83467	-1675
9,84533	-1678
9,85600	-1676
9,86667	-1679
9,87733	-1680
9,88800	-1685
9,89867	-1684
9,90933	-1685
9,92000	-1681
9,93067	-1680
9,94133	-1684
9,95200	-1680
9,96267	-1676
9,97333	-1673
9,98400	-1665
9,99467	-1665
10,00533	-1664
10,01600	-1666
10,02667	-1663
10,03733	-1665
10,04800	-1662
10,05867	-1666
10,06933	-1666
10,08000	-1663
10,09067	-1664
10,10133	-1656
10,11200	-1657
10,12267	-1653
10,13333	-1654
10,14400	-1656
10,15467	-1660
10,16533	-1662
10,17600	-1659
10,18667	-1654
10,19733	-1652
10,20800	-1650
10,21867	-1645
10,22933	-1639
10,24000	-1630
10,25067	-1632
10,26133	-1639
10,27200	-1652
10,28267	-1669
10,29333	-1688
10,30400	-1709
10,31467	-1721
10,32533	-1733
10,33600	-1744
10,34667	-1755
10,35733	-1763
10,36800	-1759
10,37867	-1767
10,38933	-1772
10,40000	-1775
10,41067	-1784
10,42133	-1787
10,43200	-1788
10,44267	-1787
10,45333	-1789
10,46400	-1794
10,47467	-1793
10,48533	-1794
10,49600	-1796
10,50667	-1796
10,51733	-1797
10,52800	-1794
10,53867	-1797
10,54933	-1799
10,56000	-1802
10,57067	-1807
10,58133	-1807
10,59200	-1805
10,60267	-1807
10,61333	-1805
10,62400	-1806
10,63467	-1803
10,64533	-1798
10,65600	-1792
10,66667	-1791
10,67733	-1788
10,68800	-1787
10,69867	-1786
10,70933	-1788
10,72000	-1792
10,73067	-1795
10,74133	-1792
10,75200	-1794
10,76267	-1795
10,77333	-1787
10,78400	-1783
10,79467	-1781
10,80533	-1774
10,81600	-1765
10,82667	-1764
10,83733	-1755
10,84800	-1753
10,85867	-1758
10,86933	-1762
10,88000	-1770
10,89067	-1780
10,90133	-1793
10,91200	-1809
10,92267	-1828
10,93333	-1836
10,94400	-1848
10,95467	-1853
10,96533	-1858
10,97600	-1862
10,98667	-1865
10,99733	-1867
11,00800	-1862
11,01867	-1868
11,02933	-1862
11,04000	-1867
11,05067	-1856
11,06133	-1857
11,07200	-1862
11,08267	-1864
11,09333	-1866
11,10400	-1869
11,11467	-1870
11,12533	-1873
11,13600	-1886
11,14667	-1890
11,15733	-1898
11,16800	-1899
11,17867	-1898
11,18933	-1901
11,20000	-1900
11,21067	-1903
11,22133	-1903
11,23200	-1907
11,24267	-1909
11,25333	-1908
11,26400	-1910
11,27467	-1916
11,28533	-1919
11,29600	-1926
11,30667	-1927
11,31733	-1926
11,32800	-1931
11,33867	-1934
11,34933	-1937
11,36000	-1939
11,37067	-1943
11,38133	-1948
11,39200	-1952
11,40267	-1951
11,41333	-1953
11,42400	-1954
11,43467	-1957
11,44533	-1956
11,45600	-1954
11,46667	-1955
11,47733	-1950
11,48800	-1943
11,49867	-1935
11,50933	-1930
11,52000	-1925
11,53067	-1920
11,54133	-1922
11,55200	-1924
11,56267	-1924
11,57333	-1928
11,58400	-1938
11,59467	-1947
11,60533	-1956
11,61600	-1965
11,62667	-1976
11,63733	-1961
11,64800	-1949
11,65867	-1977
11,66933	-1986
11,68000	-1993
11,69067	-2002
11,70133	-2003
11,71200	-2006
11,72267	-2006
11,73333	-2003
11,74400	-2003
11,75467	-2003
11,76533	-2002
11,77600	-2006
11,78667	-2005
11,79733	-2009
11,80800	-2011
11,81867	-2016
11,82933	-2020
11,84000	-2021
11,85067	-2021
11,86133	-2025
11,87200	-2029
11,88267	-2033
11,89333	-2037
11,90400	-2042
11,91467	-2049
11,92533	-2054
11,93600	-2049
11,94667	-2049
11,95733	-2048
11,96800	-2053
11,97867	-2052
11,98933	-2054
12,00000	-2059
12,01067	-2056
12,02133	-2055
12,03200	-2053
12,04267	-2055
12,05333	-2054
12,06400	-2053
12,07467	-2054
12,08533	-2051
12,09600	-2054
12,10667	-2053
12,11733	-2046
12,12800	-2035
12,13867	-2026
12,14933	-2011
12,16000	-1991
12,17067	-1959
12,18133	-1921
12,19200	-1884
12,20267	-1845
12,21333	-1803
12,22400	-1772
12,23467	-1742
12,24533	-1712
12,25600	-1729
12,26667	-1753
12,27733	-1781
12,28800	-1805
12,29867	-1835
12,30933	-1859
12,32000	-1883
12,33067	-1910
12,34133	-1931
12,35200	-1946
12,36267	-1963
12,37333	-1975
12,38400	-1983
12,39467	-1992
12,40533	-2010
12,41600	-2015
12,42667	-2020
12,43733	-2021
12,44800	-2022
12,45867	-2026
12,46933	-2025
12,48000	-2026
12,49067	-2024
12,50133	-2017
12,51200	-2013
12,52267	-2006
12,53333	-1993
12,54400	-1972
12,55467	-1956
12,56533	-1945
12,57600	-1929
12,58667	-1919
12,59733	-1911
12,60800	-1910
12,61867	-1915
12,62933	-1926
12,64000	-1941
12,65067	-1957
12,66133	-1972
12,67200	-1985
12,68267	-1996
12,69333	-2005
12,70400	-2008
12,71467	-2017
12,72533	-2025
12,73600	-2039
12,74667	-2041
12,75733	-2052
12,76800	-2056
12,77867	-2060
12,78933	-2059
12,80000	-2059
12,81067	-2057
12,82133	-2057
12,83200	-2058
12,84267	-2056
12,85333	-2053
12,86400	-2041
12,87467	-2033
12,88533	-2017
12,89600	-2001
12,90667	-1976
12,91733	-1958
12,92800	-1933
12,93867	-1912
12,94933	-1894
12,96000	-1882
12,97067	-1881
12,98133	-1880
12,99200	-1895
13,00267	-1919
13,01333	-1937
13,02400	-1967
13,03467	-1987
13,04533	-2004
13,05600	-2025
13,06667	-2040
13,07733	-2050
13,08800	-2056
13,09867	-2067
13,10933	-2080
13,12000	-2091
13,13067	-2094
13,14133	-2098
13,15200	-2097
13,16267	-2103
13,17333	-2104
13,18400	-2112
13,19467	-2110
13,20533	-2113
13,21600	-2117
13,22667	-2119
13,23733	-2120
13,24800	-2123
13,25867	-2117
13,26933	-2112
13,28000	-2102
13,29067	-2080
13,30133	-2054
13,31200	-2004
13,32267	-1950
13,33333	-1884
13,34400	-1816
13,35467	-1746
13,36533	-1692
13,37600	-1670
13,38667	-1676
13,39733	-1708
13,40800	-1759
13,41867	-1820
13,42933	-1886
13,44000	-1940
13,45067	-1985
13,46133	-2029
13,47200	-2055
13,48267	-2080
13,49333	-2105
13,50400	-2121
13,51467	-2135
13,52533	-2137
13,53600	-2141
13,54667	-2147
13,55733	-2155
13,56800	-2160
13,57867	-2153
13,58933	-2150
13,60000	-2158
13,61067	-2161
13,62133	-2160
13,63200	-2157
13,64267	-2159
13,65333	-2160
13,66400	-2160
13,67467	-2156
13,68533	-2156
13,69600	-2155
13,70667	-2154
13,71733	-2155
13,72800	-2159
13,73867	-2153
13,74933	-2156
13,76000	-2154
13,77067	-2155
13,78133	-2156
13,79200	-2151
13,80267	-2146
13,81333	-2144
13,82400	-2140
13,83467	-2135
13,84533	-2132
13,85600	-2120
13,86667	-2111
13,87733	-2098
13,88800	-2086
13,89867	-2082
13,90933	-2072
13,92000	-2070
13,93067	-2075
13,94133	-2083
13,95200	-2091
13,96267	-2100
13,97333	-2111
13,98400	-2117
13,99467	-2122
14,00533	-2128
14,01600	-2136
14,02667	-2141
14,03733	-2144
14,04800	-2152
14,05867	-2157
14,06933	-2158
14,08000	-2159
14,09067	-2156
14,10133	-2151
14,11200	-2148
14,12267	-2147
14,13333	-2146
14,14400	-2148
14,15467	-2147
14,16533	-2147
14,17600	-2143
14,18667	-2145
14,19733	-2146
14,20800	-2144
14,21867	-2143
14,22933	-2138
14,24000	-2129
14,25067	-2118
14,26133	-2109
14,27200	-2099
14,28267	-2079
14,29333	-2060
14,30400	-2033
14,31467	-2006
14,32533	-1978
14,33600	-1950
14,34667	-1931
14,35733	-1916
14,36800	-1900
14,37867	-1896
14,38933	-1906
14,40000	-1916
14,41067	-1920
14,42133	-1929
14,43200	-1933
14,44267	-1937
14,45333	-1933
14,46400	-1930
14,47467	-1929
14,48533	-1923
14,49600	-1919
14,50667	-1919
14,51733	-1923
14,52800	-1935
14,53867	-1945
14,54933	-1952
14,56000	-1968
14,57067	-1974
14,58133	-1987
14,59200	-1989
14,60267	-1985
14,61333	-1988
14,62400	-1984
14,63467	-1973
14,64533	-1960
14,65600	-1953
14,66667	-1941
14,67733	-1939
14,68800	-1931
14,69867	-1918
14,70933	-1907
14,72000	-1886
14,73067	-1840
14,74133	-1809
14,75200	-1768
14,76267	-1718
14,77333	-1661
14,78400	-1591
14,79467	-1542
14,80533	-1493
14,81600	-1442
14,82667	-1366
14,83733	-1209
14,84800	-887
14,85867	-326
14,86933	509
14,88000	1608
14,89067	2868
14,90133	4173
14,91200	5412
14,92267	6563
14,93333	7044
14,94400	6917
14,95467	6283
14,96533	5262
14,97600	4085
14,98667	2939
14,99733	1936
15,00800	1122
15,01867	511
15,02933	72
15,04000	-214
15,05067	-364
15,06133	-408
15,07200	-378
15,08267	-308
15,09333	-211
15,10400	-73
15,11467	282
15,12533	1434
15,13600	4713
15,14667	12234
15,15733	26003
15,16800	46368
15,17867	72414
15,18933	102783
15,20000	134871
15,21067	164660
15,22133	187323
15,23200	198652
15,24267	197457
15,25333	185566
15,26400	166143
15,27467	142907
15,28533	119125
15,29600	96784
15,30667	77019
15,31733	60470
15,32800	47074
15,33867	36334
15,34933	27841
15,36000	21208
15,37067	16039
15,38133	11998
15,39200	8871
15,40267	6471
15,41333	4645
15,42400	3260
15,43467	2245
15,44533	1517
15,45600	1007
15,46667	688
15,47733	514
15,48800	460
15,49867	494
15,50933	590
15,52000	719
15,53067	857
15,54133	963
15,55200	1006
15,56267	957
15,57333	813
15,58400	607
15,59467	382
15,60533	180
15,61600	28
15,62667	-79
15,63733	-128
15,64800	-137
15,65867	-102
15,66933	-33
15,68000	58
15,69067	150
15,70133	226
15,71200	269
15,72267	273
15,73333	233
15,74400	150
15,75467	26
15,76533	-113
15,77600	-228
15,78667	-298
15,79733	-273
15,80800	-153
15,81867	43
15,82933	303
15,84000	611
15,85067	929
15,86133	1208
15,87200	1406
15,88267	1477
15,89333	1427
15,90400	1274
15,91467	1042
15,92533	771
15,93600	502
15,94667	250
15,95733	38
15,96800	-130
15,97867	-242
15,98933	-314
16,00000	-344
16,01067	-337
16,02133	-303
16,03200	-240
16,04267	-163
16,05333	-113
16,06400	-97
16,07467	-136
16,08533	-227
16,09600	-352
16,10667	-489
16,11733	-631
16,12800	-760
16,13867	-886
16,14933	-1003
16,16000	-1104
16,17067	-1180
16,18133	-1241
16,19200	-1284
16,20267	-1316
16,21333	-1337
16,22400	-1341
16,23467	-1321
16,24533	-1260
16,25600	-1145
16,26667	-979
16,27733	-768
16,28800	-525
16,29867	-257
16,30933	27
16,32000	291
16,33067	490
16,34133	576
16,35200	528
16,36267	370
16,37333	130
16,38400	-152
16,39467	-434
16,40533	-701
16,41600	-944
16,42667	-1154
16,43733	-1333
16,44800	-1474
16,45867	-1583
16,46933	-1672
16,48000	-1734
16,49067	-1764
16,50133	-1778
16,51200	-1780
16,52267	-1755
16,53333	-1730
16,54400	-1702
16,55467	-1673
16,56533	-1652
16,57600	-1649
16,58667	-1663
16,59733	-1698
16,60800	-1748
16,61867	-1805
16,62933	-1859
16,64000	-1898
16,65067	-1921
16,66133	-1922
16,67200	-1908
16,68267	-1883
16,69333	-1855
16,70400	-1832
16,71467	-1812
16,72533	-1804
16,73600	-1812
16,74667	-1838
16,75733	-1881
16,76800	-1925
16,77867	-1974
16,78933	-2014
16,80000	-2051
16,81067	-2078
16,82133	-2100
16,83200	-2117
16,84267	-2133
16,85333	-2146
16,86400	-2167
16,87467	-2181
16,88533	-2189
16,89600	-2197
16,90667	-2206
16,91733	-2212
16,92800	-2214
16,93867	-2212
16,94933	-2217
16,96000	-2217
16,97067	-2216
16,98133	-2207
16,99200	-2206
17,00267	-2211
17,01333	-2216
17,02400	-2217
17,03467	-2223
17,04533	-2226
17,05600	-2232
17,06667	-2233
17,07733	-2236
17,08800	-2239
17,09867	-2243
17,10933	-2245
17,12000	-2245
17,13067	-2242
17,14133	-2245
17,15200	-2245
17,16267	-2240
17,17333	-2234
17,18400	-2232
17,19467	-2225
17,20533	-2221
17,21600	-2223
17,22667	-2228
17,23733	-2233
17,24800	-2234
17,25867	-2243
17,26933	-2245
17,28000	-2256
17,29067	-2260
17,30133	-2262
17,31200	-2267
17,32267	-2266
17,33333	-2260
17,34400	-2265
17,35467	-2266
17,36533	-2271
17,37600	-2272
17,38667	-2274
17,39733	-2269
17,40800	-2270
17,41867	-2268
17,42933	-2269
17,44000	-2269
17,45067	-2270
17,46133	-2270
17,47200	-2271
17,48267	-2268
17,49333	-2262
17,50400	-2254
17,51467	-2246
17,52533	-2240
17,53600	-2225
17,54667	-2206
17,55733	-2197
17,56800	-2185
17,57867	-2176
17,58933	-2178
17,60000	-2178
17,61067	-2180
17,62133	-2183
17,63200	-2188
17,64267	-2190
17,65333	-2192
17,66400	-2198
17,67467	-2205
17,68533	-2213
17,69600	-2218
17,70667	-2222
17,71733	-2225
17,72800	-2225
17,73867	-2232
17,74933	-2238
17,76000	-2244
17,77067	-2245
17,78133	-2251
17,79200	-2253
17,80267	-2252
17,81333	-2252
17,82400	-2255
17,83467	-2255
17,84533	-2253
17,85600	-2253
17,86667	-2255
17,87733	-2256
17,88800	-2256
17,89867	-2248
17,90933	-2251
17,92000	-2248
17,93067	-2246
17,94133	-2244
17,95200	-2240
17,96267	-2240
17,97333	-2244
17,98400	-2242
17,99467	-2243
18,00533	-2243
18,01600	-2247
18,02667	-2248
18,03733	-2248
18,04800	-2250
18,05867	-2248
18,06933	-2251
18,08000	-2249
18,09067	-2242
18,10133	-2240
18,11200	-2236
18,12267	-2228
18,13333	-2225
18,14400	-2222
18,15467	-2215
18,16533	-2212
18,17600	-2209
18,18667	-2210
18,19733	-2206
18,20800	-2208
18,21867	-2215
18,22933	-2222
18,24000	-2231
18,25067	-2233
18,26133	-2236
18,27200	-2246
18,28267	-2251
18,29333	-2258
18,30400	-2256
18,31467	-2262
18,32533	-2263
18,33600	-2256
18,34667	-2253
18,35733	-2258
18,36800	-2268
18,37867	-2266
18,38933	-2268
18,40000	-2270
18,41067	-2266
18,42133	-2263
18,43200	-2255
18,44267	-2254
18,45333	-2247
18,46400	-2243
18,47467	-2232
18,48533	-2230
18,49600	-2221
18,50667	-2220
18,51733	-2215
18,52800	-2210
18,53867	-2212
18,54933	-2212
18,56000	-2216
18,57067	-2221
18,58133	-2220
18,59200	-2227
18,60267	-2232
18,61333	-2236
18,62400	-2241
18,63467	-2242
18,64533	-2241
18,65600	-2241
18,66667	-2244
18,67733	-2247
18,68800	-2248
18,69867	-2248
18,70933	-2250
18,72000	-2249
18,73067	-2250
18,74133	-2259
18,75200	-2256
18,76267	-2259
18,77333	-2256
18,78400	-2259
18,79467	-2260
18,80533	-2258
18,81600	-2262
18,82667	-2262
18,83733	-2265
18,84800	-2264
18,85867	-2265
18,86933	-2269
18,88000	-2267
18,89067	-2269
18,90133	-2266
18,91200	-2263
18,92267	-2261
18,93333	-2260
18,94400	-2255
18,95467	-2249
18,96533	-2248
18,97600	-2245
18,98667	-2246
18,99733	-2247
19,00800	-2242
19,01867	-2246
19,02933	-2239
19,04000	-2240
19,05067	-2242
19,06133	-2246
19,07200	-2247
19,08267	-2248
19,09333	-2251
19,10400	-2251
19,11467	-2248
19,12533	-2247
19,13600	-2249
19,14667	-2252
19,15733	-2250
19,16800	-2243
19,17867	-2241
19,18933	-2239
19,20000	-2232
19,21067	-2220
19,22133	-2201
19,23200	-2178
19,24267	-2150
19,25333	-2120
19,26400	-2076
19,27467	-2027
19,28533	-1976
19,29600	-1912
19,30667	-1842
19,31733	-1781
19,32800	-1710
19,33867	-1635
19,34933	-1564
19,36000	-1497
19,37067	-1440
19,38133	-1401
19,39200	-1372
19,40267	-1369
19,41333	-1391
19,42400	-1422
19,43467	-1464
19,44533	-1518
19,45600	-1573
19,46667	-1623
19,47733	-1676
19,48800	-1717
19,49867	-1756
19,50933	-1784
19,52000	-1819
19,53067	-1854
19,54133	-1876
19,55200	-1904
19,56267	-1929
19,57333	-1948
19,58400	-1971
19,59467	-1989
19,60533	-2004
19,61600	-2015
19,62667	-2023
19,63733	-2038
19,64800	-2047
19,65867	-2057
19,66933	-2072
19,68000	-2079
19,69067	-2079
19,70133	-2082
19,71200	-2087
19,72267	-2094
19,73333	-2092
19,74400	-2103
19,75467	-2105
19,76533	-2105
19,77600	-2104
19,78667	-2105
19,79733	-2106
19,80800	-2104
19,81867	-2107
19,82933	-2111
19,84000	-2118
19,85067	-2115
19,86133	-2118
19,87200	-2119
19,88267	-2115
19,89333	-2111
19,90400	-2115
19,91467	-2113
19,92533	-2105
19,93600	-2108
19,94667	-2105
19,95733	-2099
19,96800	-2100
19,97867	-2096
19,98933	-2100
20,00000	-2103
20,01067	-2107
20,02133	-2105
20,03200	-2115
20,04267	-2120
20,05333	-2122
20,06400	-2126
20,07467	-2123
20,08533	-2125
20,09600	-2130
20,10667	-2132
20,11733	-2130
20,12800	-2131
20,13867	-2130
20,14933	-2127
20,16000	-2122
20,17067	-2119
20,18133	-2117
20,19200	-2113
20,20267	-2113
20,21333	-2113
20,22400	-2113
20,23467	-2115
20,24533	-2111
20,25600	-2105
20,26667	-2108
20,27733	-2109
20,28800	-2111
20,29867	-2112
20,30933	-2114
20,32000	-2112
20,33067	-2111
20,34133	-2109
20,35200	-2109
20,36267	-2112
20,37333	-2112
20,38400	-2102
20,39467	-2106
20,40533	-2107
20,41600	-2112
20,42667	-2109
20,43733	-2116
20,44800	-2108
20,45867	-2106
20,46933	-2100
20,48000	-2105
20,49067	-2102
20,50133	-2106
20,51200	-2098
20,52267	-2096
20,53333	-2094
20,54400	-2096
20,55467	-2065
20,56533	-2070
20,57600	-2084
20,58667	-2081
20,59733	-2082
20,60800	-2081
20,61867	-2080
20,62933	-2079
20,64000	-2073
20,65067	-2073
20,66133	-2077
20,67200	-2077
20,68267	-2080
20,69333	-2081
20,70400	-2078
20,71467	-2082
20,72533	-2082
20,73600	-2084
20,74667	-2079
20,75733	-2079
20,76800	-2078
20,77867	-2070
20,78933	-2075
20,80000	-2072
20,81067	-2074
20,82133	-2076
20,83200	-2075
20,84267	-2073
20,85333	-2073
20,86400	-2075
20,87467	-2075
20,88533	-2084
20,89600	-2081
20,90667	-2085
20,91733	-2084
20,92800	-2081
20,93867	-2087
20,94933	-2084
20,96000	-2072
20,97067	-2075
20,98133	-2069
20,99200	-2064
21,00267	-2058
21,01333	-2049
21,02400	-2047
21,03467	-2042
21,04533	-2026
21,05600	-2019
21,06667	-2013
21,07733	-2001
21,08800	-1995
21,09867	-1987
21,10933	-1986
21,12000	-1984
21,13067	-1984
21,14133	-1984
21,15200	-1989
21,16267	-1991
21,17333	-1992
21,18400	-1995
21,19467	-1998
21,20533	-2004
21,21600	-1999
21,22667	-2005
21,23733	-2010
21,24800	-2009
21,25867	-2010
21,26933	-2015
21,28000	-2020
21,29067	-2024
21,30133	-2023
21,31200	-2019
21,32267	-2019
21,33333	-2019
21,34400	-2018
21,35467	-2015
21,36533	-2016
21,37600	-2017
21,38667	-2013
21,39733	-2013
21,40800	-2012
21,41867	-2011
21,42933	-2006
21,44000	-2000
21,45067	-1999
21,46133	-1995
21,47200	-1999
21,48267	-1995
21,49333	-1999
21,50400	-1996
21,51467	-2001
21,52533	-2006
21,53600	-2005
21,54667	-2006
21,55733	-2010
21,56800	-2012
21,57867	-2010
21,58933	-2006
21,60000	-2011
21,61067	-2007
21,62133	-2007
21,63200	-2003
21,64267	-2000
21,65333	-1997
21,66400	-1983
21,67467	-1984
21,68533	-1979
21,69600	-1979
21,70667	-1971
21,71733	-1967
21,72800	-1957
21,73867	-1951
21,74933	-1946
21,76000	-1941
21,77067	-1940
21,78133	-1933
21,79200	-1933
21,80267	-1932
21,81333	-1925
21,82400	-1923
21,83467	-1922
21,84533	-1926
21,85600	-1923
21,86667	-1913
21,87733	-1914
21,88800	-1913
21,89867	-1913
21,90933	-1916
21,92000	-1914
21,93067	-1919
21,94133	-1920
21,95200	-1915
21,96267	-1916
21,97333	-1912
21,98400	-1909
21,99467	-1909
22,00533	-1910
22,01600	-1908
22,02667	-1912
22,03733	-1912
22,04800	-1916
22,05867	-1916
22,06933	-1911
22,08000	-1911
22,09067	-1908
22,10133	-1907
22,11200	-1903
22,12267	-1903
22,13333	-1900
22,14400	-1896
22,15467	-1891
22,16533	-1890
22,17600	-1881
22,18667	-1881
22,19733	-1880
22,20800	-1884
22,21867	-1887
22,22933	-1892
22,24000	-1896
22,25067	-1899
22,26133	-1905
22,27200	-1909
22,28267	-1908
22,29333	-1908
22,30400	-1916
22,31467	-1917
22,32533	-1918
22,33600	-1916
22,34667	-1909
22,35733	-1913
22,36800	-1910
22,37867	-1906
22,38933	-1905
22,40000	-1905
22,41067	-1903
22,42133	-1904
22,43200	-1905
22,44267	-1905
22,45333	-1906
22,46400	-1905
22,47467	-1906
22,48533	-1905
22,49600	-1910
22,50667	-1909
22,51733	-1906
22,52800	-1907
22,53867	-1908
22,54933	-1907
22,56000	-1903
22,57067	-1902
22,58133	-1904
22,59200	-1898
22,60267	-1894
22,61333	-1887
22,62400	-1879
22,63467	-1875
22,64533	-1867
22,65600	-1857
22,66667	-1851
22,67733	-1843
22,68800	-1837
22,69867	-1828
22,70933	-1831
22,72000	-1822
22,73067	-1819
22,74133	-1818
22,75200	-1817
22,76267	-1814
22,77333	-1812
22,78400	-1801
22,79467	-1800
22,80533	-1795
22,81600	-1786
22,82667	-1780
22,83733	-1780
22,84800	-1776
22,85867	-1770
22,86933	-1763
22,88000	-1766
22,89067	-1766
22,90133	-1768
22,91200	-1774
22,92267	-1774
22,93333	-1774
22,94400	-1772
22,95467	-1775
22,96533	-1767
22,97600	-1765
22,98667	-1760
22,99733	-1751
23,00800	-1743
23,01867	-1734
23,02933	-1724
23,04000	-1714
23,05067	-1705
23,06133	-1699
23,07200	-1690
23,08267	-1691
23,09333	-1683
23,10400	-1685
23,11467	-1683
23,12533	-1685
23,13600	-1685
23,14667	-1678
23,15733	-1679
23,16800	-1675
23,17867	-1672
23,18933	-1672
23,20000	-1673
23,21067	-1670
23,22133	-1671
23,23200	-1680
23,24267	-1681
23,25333	-1678
23,26400	-1683
23,27467	-1691
23,28533	-1692
23,29600	-1695
23,30667	-1694
23,31733	-1696
23,32800	-1692
23,33867	-1694
23,34933	-1694
23,36000	-1692
23,37067	-1690
23,38133	-1690
23,39200	-1689
23,40267	-1693
23,41333	-1693
23,42400	-1689
23,43467	-1686
23,44533	-1687
23,45600	-1689
23,46667	-1690
23,47733	-1687
23,48800	-1689
23,49867	-1693
23,50933	-1696
23,52000	-1701
23,53067	-1707
23,54133	-1706
23,55200	-1708
23,56267	-1707
23,57333	-1709
23,58400	-1714
23,59467	-1717
23,60533	-1719
23,61600	-1722
23,62667	-1724
23,63733	-1726
23,64800	-1726
23,65867	-1725
23,66933	-1729
23,68000	-1729
23,69067	-1728
23,70133	-1728
23,71200	-1731
23,72267	-1729
23,73333	-1724
23,74400	-1721
23,75467	-1722
23,76533	-1718
23,77600	-1718
23,78667	-1714
23,79733	-1702
23,80800	-1692
23,81867	-1683
23,82933	-1678
23,84000	-1666
23,85067	-1658
23,86133	-1645
23,87200	-1631
23,88267	-1624
23,89333	-1613
23,90400	-1617
23,91467	-1615
23,92533	-1613
23,93600	-1619
23,94667	-1630
23,95733	-1641
23,96800	-1643
23,97867	-1645
23,98933	-1651
24,00000	-1652
24,01067	-1654
24,02133	-1657
24,03200	-1658
24,04267	-1657
24,05333	-1658
24,06400	-1658
24,07467	-1654
24,08533	-1653
24,09600	-1659
24,10667	-1663
24,11733	-1665
24,12800	-1661
24,13867	-1663
24,14933	-1665
24,16000	-1665
24,17067	-1664
24,18133	-1665
24,19200	-1663
24,20267	-1665
24,21333	-1664
24,22400	-1661
24,23467	-1665
24,24533	-1661
24,25600	-1659
24,26667	-1656
24,27733	-1643
24,28800	-1643
24,29867	-1644
24,30933	-1639
24,32000	-1632
24,33067	-1627
24,34133	-1617
24,35200	-1612
24,36267	-1601
24,37333	-1587
24,38400	-1575
24,39467	-1565
24,40533	-1556
24,41600	-1544
24,42667	-1526
24,43733	-1518
24,44800	-1507
24,45867	-1495
24,46933	-1486
24,48000	-1470
24,49067	-1461
24,50133	-1450
24,51200	-1443
24,52267	-1438
24,53333	-1435
24,54400	-1433
24,55467	-1434
24,56533	-1431
24,57600	-1431
24,58667	-1437
24,59733	-1448
24,60800	-1455
24,61867	-1457
24,62933	-1461
24,64000	-1462
24,65067	-1467
24,66133	-1471
24,67200	-1477
24,68267	-1476
24,69333	-1484
24,70400	-1492
24,71467	-1494
24,72533	-1494
24,73600	-1497
24,74667	-1503
24,75733	-1503
24,76800	-1506
24,77867	-1512
24,78933	-1510
24,80000	-1514
24,81067	-1518
24,82133	-1517
24,83200	-1522
24,84267	-1530
24,85333	-1533
24,86400	-1532
24,87467	-1528
24,88533	-1531
24,89600	-1533
24,90667	-1536
24,91733	-1537
24,92800	-1537
24,93867	-1539
24,94933	-1535
24,96000	-1534
24,97067	-1533
24,98133	-1532
24,99200	-1530
25,00267	-1536
25,01333	-1536
25,02400	-1532
25,03467	-1533
25,04533	-1529
25,05600	-1531
25,06667	-1528
25,07733	-1525
25,08800	-1528
25,09867	-1533
25,10933	-1530
25,12000	-1527
25,13067	-1527
25,14133	-1525
25,15200	-1528
25,16267	-1526
25,17333	-1524
25,18400	-1524
25,19467	-1527
25,20533	-1523
25,21600	-1520
25,22667	-1520
25,23733	-1526
25,24800	-1524
25,25867	-1526
25,26933	-1523
25,28000	-1517
25,29067	-1519
25,30133	-1521
25,31200	-1522
25,32267	-1512
25,33333	-1509
25,34400	-1507
25,35467	-1503
25,36533	-1501
25,37600	-1504
25,38667	-1505
25,39733	-1500
25,40800	-1495
25,41867	-1487
25,42933	-1486
25,44000	-1479
25,45067	-1479
25,46133	-1474
25,47200	-1475
25,48267	-1477
25,49333	-1473
25,50400	-1475
25,51467	-1475
25,52533	-1464
25,53600	-1464
25,54667	-1459
25,55733	-1456
25,56800	-1457
25,57867	-1455
25,58933	-1448
25,60000	-1447
25,61067	-1446
25,62133	-1440
25,63200	-1441
25,64267	-1443
25,65333	-1436
25,66400	-1432
25,67467	-1431
25,68533	-1434
25,69600	-1433
25,70667	-1431
25,71733	-1430
25,72800	-1433
25,73867	-1430
25,74933	-1431
25,76000	-1430
25,77067	-1436
25,78133	-1433
25,79200	-1428
25,80267	-1430
25,81333	-1426
25,82400	-1425
25,83467	-1425
25,84533	-1422
25,85600	-1420
25,86667	-1425
25,87733	-1426
25,88800	-1428
25,89867	-1423
25,90933	-1424
25,92000	-1425
25,93067	-1421
25,94133	-1422
25,95200	-1420
25,96267	-1421
25,97333	-1418
25,98400	-1415
25,99467	-1412
26,00533	-1409
26,01600	-1403
26,02667	-1400
26,03733	-1398
26,04800	-1393
26,05867	-1385
26,06933	-1378
26,08000	-1360
26,09067	-1338
26,10133	-1320
26,11200	-1297
26,12267	-1267
26,13333	-1239
26,14400	-1199
26,15467	-1163
26,16533	-1131
26,17600	-1096
26,18667	-1058
26,19733	-1028
26,20800	-990
26,21867	-958
26,22933	-934
26,24000	-919
26,25067	-909
26,26133	-903
26,27200	-916
26,28267	-937
26,29333	-964
26,30400	-994
26,31467	-1026
26,32533	-1056
26,33600	-1085
26,34667	-1109
26,35733	-1123
26,36800	-1140
26,37867	-1155
26,38933	-1169
26,40000	-1173
26,41067	-1177
26,42133	-1187
26,43200	-1197
26,44267	-1200
26,45333	-1204
26,46400	-1208
26,47467	-1212
26,48533	-1219
26,49600	-1221
26,50667	-1221
26,51733	-1217
26,52800	-1216
26,53867	-1218
26,54933	-1216
26,56000	-1220
26,57067	-1221
26,58133	-1221
26,59200	-1220
26,60267	-1220
26,61333	-1217
26,62400	-1206
26,63467	-1205
26,64533	-1203
26,65600	-1202
26,66667	-1201
26,67733	-1204
26,68800	-1203
26,69867	-1202
26,70933	-1197
26,72000	-1200
26,73067	-1201
26,74133	-1200
26,75200	-1200
26,76267	-1198
26,77333	-1196
26,78400	-1195
26,79467	-1199
26,80533	-1202
26,81600	-1196
26,82667	-1195
26,83733	-1195
26,84800	-1191
26,85867	-1199
26,86933	-1196
26,88000	-1196
26,89067	-1197
26,90133	-1189
26,91200	-1192
26,92267	-1189
26,93333	-1190
26,94400	-1185
26,95467	-1188
26,96533	-1183
26,97600	-1180
26,98667	-1183
26,99733	-1180
27,00800	-1176
27,01867	-1179
27,02933	-1182
27,04000	-1182
27,05067	-1182
27,06133	-1177
27,07200	-1176
27,08267	-1173
27,09333	-1173
27,10400	-1173
27,11467	-1168
27,12533	-1167
27,13600	-1168
27,14667	-1165
27,15733	-1159
27,16800	-1159
27,17867	-1159
27,18933	-1150
27,20000	-1148
27,21067	-1145
27,22133	-1146
27,23200	-1146
27,24267	-1139
27,25333	-1140
27,26400	-1138
27,27467	-1138
27,28533	-1136
27,29600	-1131
27,30667	-1135
27,31733	-1137
27,32800	-1131
27,33867	-1127
27,34933	-1122
27,36000	-1121
27,37067	-1115
27,38133	-1116
27,39200	-1111
27,40267	-1111
27,41333	-1108
27,42400	-1110
27,43467	-1103
27,44533	-1098
27,45600	-1089
27,46667	-1083
27,47733	-1073
27,48800	-1058
27,49867	-1040
27,50933	-1022
27,52000	-996
27,53067	-977
27,54133	-950
27,55200	-918
27,56267	-894
27,57333	-870
27,58400	-840
27,59467	-818
27,60533	-795
27,61600	-776
27,62667	-762
27,63733	-757
27,64800	-744
27,65867	-745
27,66933	-754
27,68000	-775
27,69067	-794
27,70133	-813
27,71200	-831
27,72267	-850
27,73333	-866
27,74400	-876
27,75467	-886
27,76533	-896
27,77600	-909
27,78667	-905
27,79733	-907
27,80800	-913
27,81867	-914
27,82933	-908
27,84000	-912
27,85067	-910
27,86133	-904
27,87200	-902
27,88267	-897
27,89333	-890
27,90400	-891
27,91467	-889
27,92533	-883
27,93600	-880
27,94667	-874
27,95733	-881
27,96800	-885
27,97867	-883
27,98933	-885
28,00000	-891
28,01067	-897
28,02133	-906
28,03200	-907
28,04267	-913
28,05333	-927
28,06400	-930
28,07467	-931
28,08533	-938
28,09600	-942
28,10667	-937
28,11733	-937
28,12800	-941
28,13867	-942
28,14933	-946
28,16000	-946
28,17067	-943
28,18133	-943
28,19200	-950
28,20267	-948
28,21333	-948
28,22400	-942
28,23467	-948
28,24533	-948
28,25600	-946
28,26667	-936
28,27733	-945
28,28800	-944
28,29867	-940
28,30933	-934
28,32000	-932
28,33067	-944
28,34133	-940
28,35200	-934
28,36267	-935
28,37333	-934
28,38400	-936
28,39467	-930
28,40533	-928
28,41600	-931
28,42667	-933
28,43733	-928
28,44800	-924
28,45867	-927
28,46933	-929
28,48000	-927
28,49067	-917
28,50133	-916
28,51200	-921
28,52267	-925
28,53333	-918
28,54400	-915
28,55467	-912
28,56533	-916
28,57600	-915
28,58667	-905
28,59733	-908
28,60800	-913
28,61867	-923
28,62933	-909
28,64000	-911
28,65067	-909
28,66133	-911
28,67200	-908
28,68267	-906
28,69333	-903
28,70400	-902
28,71467	-910
28,72533	-903
28,73600	-900
28,74667	-902
28,75733	-900
28,76800	-892
28,77867	-889
28,78933	-890
28,80000	-898
28,81067	-897
28,82133	-884
28,83200	-880
28,84267	-882
28,85333	-883
28,86400	-876
28,87467	-873
28,88533	-880
28,89600	-884
28,90667	-880
28,91733	-873
28,92800	-871
28,93867	-869
28,94933	-872
28,96000	-868
28,97067	-871
28,98133	-867
28,99200	-867
29,00267	-862
29,01333	-860
29,02400	-859
29,03467	-865
29,04533	-866
29,05600	-860
29,06667	-856
29,07733	-861
29,08800	-863
29,09867	-845
29,10933	-848
29,12000	-843
29,13067	-843
29,14133	-843
29,15200	-834
29,16267	-834
29,17333	-838
29,18400	-841
29,19467	-835
29,20533	-828
29,21600	-829
29,22667	-837
29,23733	-828
29,24800	-825
29,25867	-826
29,26933	-823
29,28000	-823
29,29067	-816
29,30133	-814
29,31200	-815
29,32267	-812
29,33333	-808
29,34400	-806
29,35467	-806
29,36533	-802
29,37600	-799
29,38667	-797
29,39733	-791
29,40800	-794
29,41867	-792
29,42933	-780
29,44000	-771
29,45067	-757
29,46133	-737
29,47200	-715
29,48267	-679
29,49333	-640
29,50400	-596
29,51467	-549
29,52533	-484
29,53600	-417
29,54667	-345
29,55733	-280
29,56800	-212
29,57867	-150
29,58933	-92
29,60000	-41
29,61067	3
29,62133	38
29,63200	53
29,64267	59
29,65333	43
29,66400	11
29,67467	-32
29,68533	-93
29,69600	-156
29,70667	-220
29,71733	-273
29,72800	-327
29,73867	-370
29,74933	-402
29,76000	-422
29,77067	-445
29,78133	-468
29,79200	-486
29,80267	-505
29,81333	-508
29,82400	-517
29,83467	-528
29,84533	-532
29,85600	-535
29,86667	-540
29,87733	-544
29,88800	-548
29,89867	-551
29,90933	-555
29,92000	-554
29,93067	-557
29,94133	-562
29,95200	-562
29,96267	-561
29,97333	-561
29,98400	-563
29,99467	-567
30,00533	-565
30,01600	-561
30,02667	-558
30,03733	-564
30,04800	-562
30,05867	-560
30,06933	-563
30,08000	-564
30,09067	-564
30,10133	-564
30,11200	-569
30,12267	-565
30,13333	-562
30,14400	-564
30,15467	-558
30,16533	-552
30,17600	-557
30,18667	-554
30,19733	-550
30,20800	-546
30,21867	-543
30,22933	-538
30,24000	-530
30,25067	-520
30,26133	-515
30,27200	-514
30,28267	-507
30,29333	-501
30,30400	-495
30,31467	-487
30,32533	-477
30,33600	-469
30,34667	-462
30,35733	-454
30,36800	-445
30,37867	-437
30,38933	-432
30,40000	-426
30,41067	-423
30,42133	-420
30,43200	-415
30,44267	-412
30,45333	-404
30,46400	-407
30,47467	-405
30,48533	-408
30,49600	-404
30,50667	-409
30,51733	-415
30,52800	-417
30,53867	-426
30,54933	-429
30,56000	-436
30,57067	-439
30,58133	-439
30,59200	-440
30,60267	-439
30,61333	-431
30,62400	-427
30,63467	-418
30,64533	-411
30,65600	-402
30,66667	-398
30,67733	-389
30,68800	-385
30,69867	-378
30,70933	-373
30,72000	-368
30,73067	-360
30,74133	-360
30,75200	-367
30,76267	-365
30,77333	-367
30,78400	-363
30,79467	-361
30,80533	-366
30,81600	-367
30,82667	-368
30,83733	-369
30,84800	-373
30,85867	-370
30,86933	-366
30,88000	-373
30,89067	-373
30,90133	-373
30,91200	-368
30,92267	-369
30,93333	-372
30,94400	-368
30,95467	-365
30,96533	-359
30,97600	-358
30,98667	-355
30,99733	-349
31,00800	-348
31,01867	-344
31,02933	-348
31,04000	-344
31,05067	-342
31,06133	-339
31,07200	-342
31,08267	-343
31,09333	-345
31,10400	-344
31,11467	-351
31,12533	-355
31,13600	-363
31,14667	-365
31,15733	-365
31,16800	-370
31,17867	-369
31,18933	-371
31,20000	-376
31,21067	-378
31,22133	-381
31,23200	-385
31,24267	-382
31,25333	-383
31,26400	-388
31,27467	-390
31,28533	-392
31,29600	-395
31,30667	-396
31,31733	-399
31,32800	-402
31,33867	-405
31,34933	-404
31,36000	-408
31,37067	-408
31,38133	-402
31,39200	-402
31,40267	-405
31,41333	-404
31,42400	-409
31,43467	-401
31,44533	-406
31,45600	-412
31,46667	-406
31,47733	-408
31,48800	-408
31,49867	-401
31,50933	-395
31,52000	-390
31,53067	-395
31,54133	-387
31,55200	-385
31,56267	-383
31,57333	-382
31,58400	-378
31,59467	-372
31,60533	-371
31,61600	-374
31,62667	-372
31,63733	-366
31,64800	-365
31,65867	-364
31,66933	-363
31,68000	-361
31,69067	-361
31,70133	-359
31,71200	-359
31,72267	-355
31,73333	-357
31,74400	-358
31,75467	-357
31,76533	-352
31,77600	-353
31,78667	-350
31,79733	-349
31,80800	-344
31,81867	-345
31,82933	-341
31,84000	-343
31,85067	-344
31,86133	-338
31,87200	-338
31,88267	-331
31,89333	-332
31,90400	-331
31,91467	-333
31,92533	-327
31,93600	-327
31,94667	-322
31,95733	-325
31,96800	-324
31,97867	-321
31,98933	-318
32,00000	-319
32,01067	-322
32,02133	-326
32,03200	-320
32,04267	-316
32,05333	-314
32,06400	-318
32,07467	-322
32,08533	-322
32,09600	-322
32,10667	-319
32,11733	-322
32,12800	-313
32,13867	-317
32,14933	-317
32,16000	-315
32,17067	-318
32,18133	-315
32,19200	-312
32,20267	-311
32,21333	-312
32,22400	-312
32,23467	-310
32,24533	-306
32,25600	-311
32,26667	-311
32,27733	-312
32,28800	-309
32,29867	-305
32,30933	-312
32,32000	-308
32,33067	-304
32,34133	-302
32,35200	-302
32,36267	-304
32,37333	-304
32,38400	-301
32,39467	-302
32,40533	-297
32,41600	-300
32,42667	-300
32,43733	-298
32,44800	-299
32,45867	-297
32,46933	-292
32,48000	-290
32,49067	-289
32,50133	-293
32,51200	-289
32,52267	-289
32,53333	-288
32,54400	-292
32,55467	-297
32,56533	-291
32,57600	-285
32,58667	-284
32,59733	-282
32,60800	-279
32,61867	-277
32,62933	-277
32,64000	-278
32,65067	-272
32,66133	-268
32,67200	-273
32,68267	-275
32,69333	-278
32,70400	-276
32,71467	-276
32,72533	-274
32,73600	-277
32,74667	-277
32,75733	-276
32,76800	-274
32,77867	-264
32,78933	-262
32,80000	-264
32,81067	-263
32,82133	-263
32,83200	-265
32,84267	-268
32,85333	-270
32,86400	-270
32,87467	-268
32,88533	-264
32,89600	-261
32,90667	-264
32,91733	-265
32,92800	-263
32,93867	-263
32,94933	-259
32,96000	-261
32,97067	-260
32,98133	-258
32,99200	-253
33,00267	-253
33,01333	-255
33,02400	-249
33,03467	-249
33,04533	-247
33,05600	-246
33,06667	-248
33,07733	-245
33,08800	-246
33,09867	-249
33,10933	-241
33,12000	-238
33,13067	-241
33,14133	-245
33,15200	-241
33,16267	-242
33,17333	-243
33,18400	-243
33,19467	-244
33,20533	-241
33,21600	-242
33,22667	-241
33,23733	-242
33,24800	-240
33,25867	-239
33,26933	-239
33,28000	-239
33,29067	-235
33,30133	-238
33,31200	-239
33,32267	-237
33,33333	-239
33,34400	-237
33,35467	-234
33,36533	-233
33,37600	-235
33,38667	-230
33,39733	-230
33,40800	-229
33,41867	-229
33,42933	-228
33,44000	-231
33,45067	-225
33,46133	-220
33,47200	-227
33,48267	-223
33,49333	-222
33,50400	-226
33,51467	-222
33,52533	-221
33,53600	-219
33,54667	-220
33,55733	-224
33,56800	-220
33,57867	-222
33,58933	-220
33,60000	-221
33,61067	-225
33,62133	-225
33,63200	-225
33,64267	-221
33,65333	-221
33,66400	-225
33,67467	-223
33,68533	-222
33,69600	-219
33,70667	-218
33,71733	-219
33,72800	-221
33,73867	-217
33,74933	-216
33,76000	-215
33,77067	-214
33,78133	-212
33,79200	-208
33,80267	-211
33,81333	-214
33,82400	-220
33,83467	-220
33,84533	-213
33,85600	-213
33,86667	-208
33,87733	-206
33,88800	-209
33,89867	-208
33,90933	-206
33,92000	-205
33,93067	-201
33,94133	-206
33,95200	-207
33,96267	-194
33,97333	-197
33,98400	-199
33,99467	-203
34,00533	-200
34,01600	-203
34,02667	-197
34,03733	-196
34,04800	-193
34,05867	-197
34,06933	-197
34,08000	-197
34,09067	-195
34,10133	-192
34,11200	-190
34,12267	-195
34,13333	-193
34,14400	-194
34,15467	-192
34,16533	-191
34,17600	-192
34,18667	-190
34,19733	-186
34,20800	-185
34,21867	-188
34,22933	-186
34,24000	-183
34,25067	-182
34,26133	-178
34,27200	-176
34,28267	-176
34,29333	-177
34,30400	-174
34,31467	-176
34,32533	-177
34,33600	-176
34,34667	-174
34,35733	-170
34,36800	-171
34,37867	-170
34,38933	-166
34,40000	-168
34,41067	-174
34,42133	-171
34,43200	-147
34,44267	-161
34,45333	-162
34,46400	-163
34,47467	-172
34,48533	-166
34,49600	-164
34,50667	-165
34,51733	-170
34,52800	-175
34,53867	-172
34,54933	-175
34,56000	-173
34,57067	-172
34,58133	-182
34,59200	-176
34,60267	-172
34,61333	-177
34,62400	-176
34,63467	-177
34,64533	-171
34,65600	-172
34,66667	-172
34,67733	-173
34,68800	-170
34,69867	-173
34,70933	-177
34,72000	-176
34,73067	-175
34,74133	-175
34,75200	-175
34,76267	-174
34,77333	-170
34,78400	-174
34,79467	-171
34,80533	-168
34,81600	-169
34,82667	-168
34,83733	-168
34,84800	-165
34,85867	-172
34,86933	-168
34,88000	-168
34,89067	-165
34,90133	-164
34,91200	-157
34,92267	-163
34,93333	-161
34,94400	-166
34,95467	-172
34,96533	-170
34,97600	-171
34,98667	-170
34,99733	-167
35,00800	-163
35,01867	-165
35,02933	-166
35,04000	-166
35,05067	-163
35,06133	-161
35,07200	-159
35,08267	-157
35,09333	-159
35,10400	-157
35,11467	-161
35,12533	-159
35,13600	-162
35,14667	-159
35,15733	-155
35,16800	-154
35,17867	-153
35,18933	-154
35,20000	-156
35,21067	-159
35,22133	-158
35,23200	-153
35,24267	-157
35,25333	-158
35,26400	-160
35,27467	-154
35,28533	-156
35,29600	-152
35,30667	-155
35,31733	-154
35,32800	-154
35,33867	-150
35,34933	-151
35,36000	-147
35,37067	-149
35,38133	-145
35,39200	-147
35,40267	-145
35,41333	-143
35,42400	-147
35,43467	-144
35,44533	-145
35,45600	-142
35,46667	-147
35,47733	-145
35,48800	-146
35,49867	-147
35,50933	-143
35,52000	-139
35,53067	-137
35,54133	-134
35,55200	-138
35,56267	-137
35,57333	-140
35,58400	-136
35,59467	-143
35,60533	-143
35,61600	-142
35,62667	-141
35,63733	-140
35,64800	-135
35,65867	-136
35,66933	-138
35,68000	-134
35,69067	-138
35,70133	-135
35,71200	-135
35,72267	-134
35,73333	-136
35,74400	-136
35,75467	-134
35,76533	-135
35,77600	-131
35,78667	-130
35,79733	-132
35,80800	-133
35,81867	-124
35,82933	-121
35,84000	-123
35,85067	-128
35,86133	-125
35,87200	-125
35,88267	-125
35,89333	-125
35,90400	-125
35,91467	-128
35,92533	-126
35,93600	-128
35,94667	-129
35,95733	-131
35,96800	-127
35,97867	-124
35,98933	-127
36,00000	-122
36,01067	-123
36,02133	-128


